,Frame_number,bbox_top_x,bbox_top_y,bbox_bottom_x,bbox_bottom_y,landmark_0_x,landmark_0_y,landmark_1_x,landmark_1_y,landmark_2_x,landmark_2_y,landmark_3_x,landmark_3_y,landmark_4_x,landmark_4_y,landmark_5_x,landmark_5_y,landmark_6_x,landmark_6_y,landmark_7_x,landmark_7_y,landmark_8_x,landmark_8_y,landmark_9_x,landmark_9_y,landmark_10_x,landmark_10_y,landmark_11_x,landmark_11_y,landmark_12_x,landmark_12_y,landmark_13_x,landmark_13_y,landmark_14_x,landmark_14_y,landmark_15_x,landmark_15_y,landmark_16_x,landmark_16_y,landmark_17_x,landmark_17_y,landmark_18_x,landmark_18_y,landmark_19_x,landmark_19_y,landmark_20_x,landmark_20_y,landmark_21_x,landmark_21_y,landmark_22_x,landmark_22_y,landmark_23_x,landmark_23_y,landmark_24_x,landmark_24_y,landmark_25_x,landmark_25_y,landmark_26_x,landmark_26_y,landmark_27_x,landmark_27_y,landmark_28_x,landmark_28_y,landmark_29_x,landmark_29_y,landmark_30_x,landmark_30_y,landmark_31_x,landmark_31_y,landmark_32_x,landmark_32_y,landmark_33_x,landmark_33_y,landmark_34_x,landmark_34_y,landmark_35_x,landmark_35_y,landmark_36_x,landmark_36_y,landmark_37_x,landmark_37_y,landmark_38_x,landmark_38_y,landmark_39_x,landmark_39_y,landmark_40_x,landmark_40_y,landmark_41_x,landmark_41_y,landmark_42_x,landmark_42_y,landmark_43_x,landmark_43_y,landmark_44_x,landmark_44_y,landmark_45_x,landmark_45_y,landmark_46_x,landmark_46_y,landmark_47_x,landmark_47_y,landmark_48_x,landmark_48_y,landmark_49_x,landmark_49_y,landmark_50_x,landmark_50_y,landmark_51_x,landmark_51_y,landmark_52_x,landmark_52_y,landmark_53_x,landmark_53_y,landmark_54_x,landmark_54_y,landmark_55_x,landmark_55_y,landmark_56_x,landmark_56_y,landmark_57_x,landmark_57_y,landmark_58_x,landmark_58_y,landmark_59_x,landmark_59_y,landmark_60_x,landmark_60_y,landmark_61_x,landmark_61_y,landmark_62_x,landmark_62_y,landmark_63_x,landmark_63_y,landmark_64_x,landmark_64_y,landmark_65_x,landmark_65_y,landmark_66_x,landmark_66_y,landmark_67_x,landmark_67_y
2739,2739.0,711.1030883789062,150.85281372070312,1270.094970703125,970.4647216796875,696.0,502.0,710.0,589.0,722.0,661.0,740.0,738.0,767.0,806.0,822.0,853.0,871.0,880.0,934.0,899.0,1030.0,918.0,1121.0,896.0,1167.0,871.0,1208.0,836.0,1248.0,782.0,1269.0,703.0,1276.0,632.0,1290.0,561.0,1286.0,479.0,761.0,408.0,800.0,372.0,844.0,362.0,889.0,364.0,923.0,372.0,1087.0,368.0,1119.0,360.0,1161.0,351.0,1207.0,363.0,1243.0,390.0,1005.0,458.0,1008.0,512.0,1012.0,558.0,1018.0,601.0,964.0,636.0,986.0,645.0,1020.0,650.0,1047.0,638.0,1068.0,633.0,822.0,469.0,850.0,453.0,888.0,452.0,921.0,472.0,890.0,478.0,850.0,478.0,1088.0,469.0,1120.0,448.0,1159.0,439.0,1184.0,456.0,1159.0,473.0,1119.0,474.0,911.0,742.0,945.0,718.0,1000.0,700.0,1025.0,703.0,1048.0,697.0,1097.0,710.0,1135.0,735.0,1097.0,755.0,1067.0,765.0,1030.0,768.0,997.0,769.0,958.0,761.0,916.0,741.0,989.0,734.0,1025.0,732.0,1056.0,727.0,1129.0,734.0,1056.0,726.0,1026.0,734.0,990.0,735.0
2738,2738.0,711.7725219726562,149.86224365234375,1270.540771484375,968.3320922851562,697.0,501.0,711.0,587.0,723.0,659.0,741.0,737.0,769.0,805.0,824.0,853.0,872.0,879.0,935.0,899.0,1030.0,917.0,1121.0,895.0,1167.0,870.0,1208.0,835.0,1248.0,781.0,1269.0,702.0,1275.0,631.0,1289.0,560.0,1285.0,479.0,762.0,406.0,800.0,371.0,845.0,362.0,890.0,364.0,923.0,371.0,1088.0,367.0,1120.0,359.0,1162.0,355.0,1208.0,362.0,1243.0,390.0,1005.0,457.0,1009.0,511.0,1013.0,558.0,1019.0,600.0,964.0,636.0,986.0,645.0,1021.0,650.0,1048.0,644.0,1068.0,633.0,823.0,468.0,850.0,452.0,889.0,451.0,921.0,471.0,891.0,477.0,851.0,477.0,1089.0,468.0,1121.0,448.0,1160.0,438.0,1185.0,455.0,1159.0,472.0,1120.0,473.0,910.0,743.0,945.0,719.0,1000.0,699.0,1026.0,703.0,1048.0,697.0,1097.0,710.0,1135.0,734.0,1098.0,754.0,1068.0,764.0,1030.0,767.0,990.0,769.0,958.0,761.0,915.0,741.0,990.0,734.0,1025.0,731.0,1055.0,732.0,1129.0,733.0,1056.0,725.0,1026.0,733.0,990.0,734.0
2737,2737.0,710.5587158203125,150.11260986328125,1270.6812744140625,969.7169799804688,696.0,500.0,710.0,587.0,722.0,659.0,740.0,737.0,768.0,806.0,823.0,853.0,871.0,879.0,935.0,899.0,1031.0,917.0,1122.0,895.0,1173.0,868.0,1209.0,833.0,1249.0,780.0,1270.0,701.0,1276.0,631.0,1289.0,559.0,1277.0,477.0,761.0,407.0,800.0,372.0,845.0,362.0,890.0,365.0,923.0,372.0,1087.0,368.0,1119.0,360.0,1161.0,350.0,1207.0,362.0,1242.0,388.0,1005.0,458.0,1009.0,512.0,1017.0,559.0,1019.0,601.0,964.0,636.0,987.0,645.0,1021.0,650.0,1048.0,644.0,1068.0,633.0,822.0,469.0,850.0,453.0,889.0,452.0,920.0,472.0,891.0,478.0,851.0,478.0,1088.0,468.0,1120.0,448.0,1159.0,438.0,1184.0,454.0,1159.0,472.0,1119.0,473.0,910.0,742.0,945.0,718.0,1001.0,699.0,1026.0,703.0,1049.0,697.0,1098.0,709.0,1135.0,734.0,1098.0,754.0,1068.0,765.0,1030.0,768.0,997.0,769.0,958.0,762.0,916.0,741.0,990.0,734.0,1025.0,731.0,1056.0,726.0,1130.0,733.0,1063.0,726.0,1026.0,734.0,990.0,735.0
2736,2736.0,711.4559326171875,150.669189453125,1269.526123046875,970.1051025390625,696.0,502.0,711.0,589.0,723.0,668.0,741.0,739.0,768.0,808.0,824.0,854.0,872.0,881.0,936.0,900.0,1032.0,918.0,1130.0,895.0,1175.0,870.0,1210.0,836.0,1249.0,782.0,1270.0,703.0,1277.0,632.0,1290.0,560.0,1285.0,479.0,761.0,408.0,800.0,372.0,845.0,362.0,890.0,365.0,923.0,372.0,1087.0,368.0,1119.0,360.0,1161.0,351.0,1207.0,362.0,1242.0,390.0,1006.0,458.0,1010.0,512.0,1017.0,559.0,1020.0,601.0,965.0,637.0,987.0,645.0,1021.0,650.0,1048.0,638.0,1069.0,633.0,822.0,470.0,850.0,453.0,889.0,452.0,921.0,472.0,891.0,479.0,851.0,479.0,1089.0,469.0,1120.0,449.0,1159.0,439.0,1185.0,455.0,1159.0,473.0,1119.0,474.0,911.0,742.0,945.0,718.0,1001.0,699.0,1027.0,703.0,1050.0,697.0,1099.0,710.0,1136.0,735.0,1099.0,754.0,1069.0,764.0,1031.0,767.0,998.0,769.0,958.0,762.0,916.0,741.0,995.0,734.0,1026.0,731.0,1064.0,726.0,1130.0,733.0,1064.0,725.0,1028.0,734.0,999.0,736.0
2735,2735.0,711.3623046875,147.6878662109375,1269.404541015625,970.957763671875,695.0,502.0,709.0,589.0,721.0,668.0,738.0,739.0,766.0,808.0,821.0,855.0,870.0,888.0,934.0,901.0,1029.0,918.0,1121.0,896.0,1167.0,871.0,1208.0,836.0,1248.0,783.0,1269.0,702.0,1276.0,632.0,1291.0,560.0,1287.0,478.0,759.0,408.0,799.0,378.0,843.0,363.0,889.0,365.0,923.0,378.0,1086.0,368.0,1119.0,360.0,1162.0,356.0,1208.0,363.0,1244.0,389.0,1005.0,458.0,1009.0,513.0,1012.0,559.0,1018.0,601.0,964.0,637.0,986.0,646.0,1021.0,650.0,1048.0,645.0,1068.0,634.0,821.0,470.0,849.0,453.0,888.0,453.0,920.0,473.0,890.0,479.0,849.0,479.0,1090.0,469.0,1121.0,448.0,1161.0,445.0,1186.0,455.0,1160.0,473.0,1121.0,474.0,910.0,743.0,945.0,719.0,1000.0,700.0,1025.0,703.0,1049.0,697.0,1097.0,710.0,1135.0,735.0,1097.0,755.0,1068.0,765.0,1029.0,767.0,997.0,769.0,958.0,762.0,915.0,742.0,990.0,735.0,1025.0,732.0,1055.0,732.0,1129.0,734.0,1056.0,725.0,1026.0,734.0,998.0,736.0
2734,2734.0,711.0074462890625,149.34579467773438,1270.18408203125,968.965576171875,696.0,501.0,710.0,588.0,723.0,667.0,740.0,738.0,767.0,807.0,822.0,854.0,871.0,887.0,935.0,900.0,1031.0,918.0,1122.0,896.0,1173.0,870.0,1209.0,836.0,1248.0,783.0,1269.0,703.0,1276.0,633.0,1290.0,561.0,1285.0,479.0,761.0,407.0,800.0,371.0,844.0,362.0,890.0,364.0,923.0,378.0,1087.0,368.0,1120.0,360.0,1162.0,356.0,1208.0,363.0,1244.0,390.0,1005.0,458.0,1009.0,512.0,1017.0,558.0,1019.0,601.0,964.0,636.0,987.0,645.0,1021.0,650.0,1048.0,644.0,1069.0,634.0,822.0,469.0,849.0,453.0,889.0,452.0,921.0,472.0,891.0,478.0,850.0,478.0,1090.0,469.0,1121.0,448.0,1161.0,445.0,1186.0,455.0,1160.0,473.0,1120.0,474.0,910.0,743.0,946.0,719.0,1001.0,700.0,1026.0,703.0,1049.0,697.0,1097.0,710.0,1135.0,735.0,1098.0,754.0,1068.0,765.0,1030.0,767.0,997.0,768.0,958.0,761.0,916.0,741.0,994.0,734.0,1025.0,731.0,1055.0,732.0,1130.0,734.0,1063.0,725.0,1027.0,734.0,998.0,735.0
2733,2733.0,712.27880859375,149.32620239257812,1269.314208984375,966.1866455078125,696.0,498.0,710.0,585.0,721.0,657.0,738.0,736.0,764.0,806.0,813.0,852.0,870.0,886.0,935.0,900.0,1030.0,917.0,1121.0,896.0,1166.0,871.0,1206.0,841.0,1246.0,784.0,1267.0,711.0,1274.0,633.0,1288.0,562.0,1284.0,481.0,762.0,406.0,801.0,370.0,846.0,362.0,891.0,364.0,931.0,378.0,1088.0,368.0,1120.0,360.0,1163.0,356.0,1208.0,363.0,1244.0,390.0,1006.0,457.0,1010.0,511.0,1017.0,557.0,1019.0,599.0,965.0,635.0,987.0,644.0,1022.0,649.0,1049.0,643.0,1069.0,633.0,824.0,467.0,851.0,451.0,890.0,450.0,922.0,471.0,892.0,477.0,852.0,476.0,1090.0,468.0,1122.0,448.0,1161.0,445.0,1186.0,455.0,1160.0,472.0,1121.0,473.0,910.0,741.0,953.0,718.0,1002.0,698.0,1026.0,707.0,1050.0,696.0,1099.0,710.0,1137.0,735.0,1099.0,754.0,1069.0,764.0,1031.0,766.0,998.0,767.0,959.0,760.0,916.0,740.0,995.0,733.0,1026.0,730.0,1063.0,730.0,1131.0,734.0,1064.0,731.0,1028.0,732.0,999.0,734.0
2732,2732.0,711.1378173828125,146.11428833007812,1269.2464599609375,968.25390625,695.0,499.0,709.0,586.0,720.0,666.0,737.0,737.0,765.0,806.0,820.0,853.0,869.0,886.0,933.0,899.0,1030.0,918.0,1122.0,896.0,1173.0,870.0,1207.0,840.0,1248.0,782.0,1268.0,710.0,1275.0,632.0,1289.0,560.0,1285.0,479.0,761.0,405.0,800.0,376.0,845.0,360.0,891.0,363.0,931.0,377.0,1088.0,367.0,1121.0,359.0,1163.0,354.0,1209.0,361.0,1244.0,389.0,1006.0,457.0,1010.0,511.0,1017.0,558.0,1019.0,600.0,965.0,641.0,987.0,645.0,1021.0,649.0,1048.0,644.0,1069.0,633.0,822.0,467.0,850.0,451.0,889.0,451.0,921.0,471.0,891.0,477.0,851.0,477.0,1090.0,468.0,1122.0,447.0,1162.0,444.0,1187.0,455.0,1161.0,472.0,1121.0,473.0,910.0,741.0,945.0,718.0,1001.0,699.0,1025.0,708.0,1049.0,697.0,1098.0,710.0,1136.0,734.0,1098.0,754.0,1068.0,764.0,1030.0,766.0,989.0,774.0,958.0,761.0,915.0,740.0,994.0,733.0,1025.0,730.0,1056.0,731.0,1130.0,733.0,1063.0,731.0,1027.0,733.0,998.0,735.0
2731,2731.0,710.5982666015625,149.74465942382812,1268.738037109375,966.5125732421875,695.0,503.0,709.0,589.0,722.0,669.0,739.0,739.0,766.0,808.0,821.0,854.0,871.0,886.0,935.0,899.0,1032.0,917.0,1129.0,894.0,1174.0,869.0,1208.0,839.0,1248.0,782.0,1268.0,710.0,1275.0,633.0,1288.0,561.0,1283.0,481.0,761.0,408.0,800.0,378.0,844.0,362.0,890.0,365.0,930.0,379.0,1088.0,367.0,1120.0,360.0,1163.0,356.0,1208.0,363.0,1243.0,391.0,1006.0,458.0,1010.0,512.0,1017.0,558.0,1019.0,601.0,965.0,641.0,987.0,645.0,1021.0,650.0,1048.0,644.0,1069.0,633.0,822.0,470.0,850.0,453.0,889.0,452.0,921.0,473.0,891.0,479.0,850.0,479.0,1089.0,469.0,1121.0,449.0,1161.0,446.0,1185.0,456.0,1160.0,473.0,1120.0,474.0,911.0,742.0,952.0,718.0,1001.0,699.0,1025.0,708.0,1049.0,696.0,1098.0,709.0,1136.0,734.0,1098.0,753.0,1068.0,764.0,1030.0,767.0,997.0,768.0,958.0,761.0,916.0,741.0,995.0,734.0,1026.0,731.0,1062.0,731.0,1130.0,733.0,1063.0,731.0,1027.0,733.0,998.0,735.0
2730,2730.0,711.895751953125,147.94293212890625,1268.42236328125,965.8348999023438,697.0,498.0,711.0,585.0,722.0,665.0,738.0,736.0,765.0,806.0,821.0,854.0,870.0,887.0,935.0,907.0,1030.0,918.0,1128.0,896.0,1172.0,870.0,1206.0,841.0,1247.0,783.0,1268.0,710.0,1274.0,632.0,1288.0,561.0,1283.0,480.0,763.0,405.0,802.0,377.0,847.0,361.0,892.0,364.0,933.0,378.0,1089.0,367.0,1128.0,360.0,1165.0,356.0,1216.0,363.0,1245.0,390.0,1007.0,457.0,1010.0,512.0,1017.0,558.0,1019.0,601.0,965.0,641.0,987.0,645.0,1021.0,649.0,1048.0,644.0,1069.0,633.0,824.0,467.0,852.0,452.0,891.0,451.0,922.0,471.0,893.0,478.0,852.0,477.0,1090.0,468.0,1130.0,448.0,1162.0,445.0,1187.0,455.0,1162.0,472.0,1121.0,473.0,910.0,742.0,946.0,717.0,1001.0,698.0,1025.0,707.0,1049.0,696.0,1097.0,710.0,1135.0,735.0,1097.0,754.0,1068.0,765.0,1030.0,773.0,989.0,774.0,958.0,761.0,916.0,741.0,994.0,733.0,1025.0,730.0,1055.0,731.0,1130.0,734.0,1062.0,732.0,1027.0,733.0,998.0,735.0
2729,2729.0,710.119384765625,150.77899169921875,1269.072265625,968.1055297851562,696.0,502.0,710.0,589.0,723.0,668.0,740.0,739.0,768.0,809.0,823.0,856.0,872.0,888.0,936.0,901.0,1032.0,919.0,1129.0,896.0,1173.0,871.0,1207.0,841.0,1247.0,784.0,1267.0,712.0,1274.0,634.0,1287.0,562.0,1283.0,481.0,762.0,407.0,801.0,371.0,846.0,363.0,891.0,365.0,930.0,372.0,1087.0,368.0,1119.0,360.0,1161.0,350.0,1207.0,362.0,1242.0,390.0,1006.0,458.0,1010.0,513.0,1018.0,559.0,1020.0,601.0,965.0,637.0,987.0,646.0,1022.0,650.0,1048.0,644.0,1069.0,633.0,824.0,470.0,851.0,454.0,890.0,452.0,922.0,472.0,892.0,479.0,852.0,479.0,1089.0,470.0,1121.0,450.0,1160.0,447.0,1184.0,456.0,1160.0,473.0,1120.0,475.0,911.0,743.0,953.0,719.0,1002.0,699.0,1027.0,703.0,1049.0,697.0,1098.0,709.0,1135.0,735.0,1098.0,754.0,1068.0,764.0,1031.0,767.0,998.0,769.0,959.0,762.0,916.0,741.0,996.0,735.0,1026.0,731.0,1062.0,731.0,1129.0,733.0,1063.0,725.0,1028.0,734.0,999.0,736.0
2728,2728.0,711.864501953125,148.28961181640625,1267.359375,965.1582641601562,696.0,498.0,710.0,584.0,721.0,664.0,738.0,735.0,765.0,805.0,820.0,853.0,871.0,886.0,936.0,907.0,1030.0,918.0,1128.0,896.0,1171.0,871.0,1205.0,842.0,1246.0,784.0,1266.0,711.0,1273.0,633.0,1286.0,562.0,1282.0,487.0,762.0,405.0,802.0,370.0,846.0,361.0,891.0,363.0,931.0,377.0,1088.0,367.0,1126.0,360.0,1164.0,356.0,1215.0,363.0,1244.0,390.0,1006.0,457.0,1009.0,511.0,1017.0,558.0,1018.0,600.0,965.0,641.0,986.0,645.0,1021.0,649.0,1048.0,643.0,1069.0,633.0,823.0,467.0,851.0,452.0,890.0,451.0,922.0,471.0,892.0,477.0,851.0,477.0,1089.0,468.0,1129.0,448.0,1161.0,445.0,1186.0,455.0,1161.0,472.0,1120.0,473.0,911.0,741.0,952.0,717.0,1002.0,698.0,1026.0,707.0,1049.0,696.0,1097.0,710.0,1135.0,735.0,1097.0,754.0,1068.0,764.0,1031.0,772.0,998.0,773.0,959.0,761.0,916.0,740.0,995.0,733.0,1026.0,730.0,1062.0,730.0,1129.0,733.0,1063.0,731.0,1027.0,733.0,999.0,735.0
2727,2727.0,711.0948486328125,147.01272583007812,1269.521240234375,970.3321533203125,696.0,503.0,710.0,590.0,722.0,669.0,739.0,740.0,768.0,809.0,823.0,855.0,872.0,888.0,936.0,901.0,1031.0,919.0,1129.0,896.0,1174.0,871.0,1208.0,841.0,1249.0,784.0,1270.0,711.0,1277.0,633.0,1290.0,561.0,1285.0,480.0,760.0,408.0,800.0,378.0,844.0,362.0,889.0,364.0,923.0,378.0,1088.0,367.0,1120.0,360.0,1163.0,356.0,1209.0,362.0,1244.0,390.0,1006.0,458.0,1009.0,513.0,1017.0,559.0,1019.0,601.0,965.0,642.0,987.0,646.0,1021.0,650.0,1048.0,645.0,1069.0,634.0,822.0,470.0,850.0,453.0,889.0,452.0,921.0,473.0,892.0,479.0,851.0,479.0,1090.0,469.0,1122.0,448.0,1161.0,445.0,1186.0,455.0,1161.0,473.0,1121.0,474.0,910.0,743.0,946.0,718.0,1001.0,699.0,1026.0,702.0,1049.0,697.0,1098.0,710.0,1135.0,735.0,1098.0,754.0,1068.0,764.0,1030.0,767.0,997.0,768.0,958.0,761.0,916.0,741.0,994.0,734.0,1026.0,731.0,1056.0,732.0,1130.0,734.0,1062.0,732.0,1027.0,734.0,998.0,735.0
2726,2726.0,711.4796142578125,149.3033447265625,1269.2021484375,966.1083984375,696.0,500.0,711.0,587.0,722.0,667.0,739.0,738.0,766.0,807.0,821.0,854.0,870.0,887.0,935.0,906.0,1031.0,918.0,1128.0,896.0,1173.0,870.0,1207.0,841.0,1247.0,783.0,1268.0,711.0,1275.0,633.0,1288.0,562.0,1284.0,487.0,762.0,406.0,801.0,371.0,846.0,362.0,891.0,364.0,931.0,378.0,1088.0,367.0,1121.0,359.0,1163.0,355.0,1209.0,363.0,1244.0,391.0,1007.0,457.0,1010.0,511.0,1017.0,558.0,1019.0,600.0,965.0,641.0,987.0,645.0,1021.0,649.0,1048.0,644.0,1069.0,633.0,823.0,468.0,851.0,452.0,890.0,451.0,922.0,472.0,892.0,478.0,851.0,477.0,1090.0,468.0,1129.0,448.0,1161.0,445.0,1186.0,455.0,1161.0,473.0,1121.0,474.0,910.0,742.0,946.0,718.0,1001.0,699.0,1025.0,708.0,1049.0,697.0,1098.0,710.0,1135.0,734.0,1098.0,754.0,1068.0,764.0,1030.0,766.0,997.0,768.0,958.0,761.0,916.0,740.0,995.0,733.0,1026.0,731.0,1056.0,731.0,1130.0,733.0,1063.0,731.0,1027.0,733.0,998.0,735.0
2725,2725.0,712.0158081054688,152.5694580078125,1268.4013671875,964.1783447265625,698.0,500.0,711.0,586.0,723.0,665.0,739.0,736.0,766.0,806.0,814.0,853.0,870.0,888.0,935.0,907.0,1030.0,919.0,1128.0,896.0,1173.0,870.0,1207.0,840.0,1247.0,781.0,1267.0,701.0,1274.0,631.0,1287.0,559.0,1283.0,478.0,762.0,407.0,800.0,371.0,845.0,362.0,890.0,365.0,923.0,372.0,1087.0,368.0,1119.0,360.0,1161.0,351.0,1207.0,362.0,1242.0,389.0,1005.0,458.0,1010.0,512.0,1017.0,558.0,1019.0,600.0,965.0,636.0,987.0,645.0,1021.0,649.0,1048.0,644.0,1068.0,633.0,823.0,468.0,850.0,453.0,889.0,452.0,921.0,472.0,891.0,478.0,851.0,478.0,1089.0,468.0,1120.0,448.0,1160.0,445.0,1184.0,455.0,1159.0,472.0,1119.0,474.0,910.0,742.0,946.0,718.0,1001.0,699.0,1025.0,708.0,1049.0,697.0,1097.0,710.0,1135.0,734.0,1097.0,754.0,1068.0,764.0,1030.0,767.0,989.0,774.0,958.0,761.0,915.0,740.0,994.0,733.0,1025.0,730.0,1055.0,731.0,1130.0,733.0,1062.0,732.0,1027.0,733.0,998.0,735.0
2724,2724.0,713.627685546875,149.75192260742188,1269.04443359375,964.9263916015625,698.0,498.0,711.0,583.0,723.0,656.0,739.0,734.0,766.0,803.0,815.0,850.0,872.0,885.0,936.0,898.0,1031.0,916.0,1122.0,895.0,1173.0,869.0,1208.0,839.0,1248.0,782.0,1269.0,710.0,1275.0,632.0,1289.0,560.0,1284.0,479.0,763.0,405.0,801.0,369.0,845.0,361.0,891.0,363.0,924.0,371.0,1088.0,367.0,1121.0,359.0,1163.0,355.0,1209.0,362.0,1243.0,390.0,1006.0,456.0,1010.0,510.0,1018.0,557.0,1019.0,599.0,966.0,640.0,988.0,644.0,1022.0,649.0,1048.0,643.0,1069.0,633.0,824.0,466.0,851.0,451.0,890.0,450.0,922.0,470.0,892.0,476.0,852.0,476.0,1090.0,467.0,1122.0,447.0,1161.0,444.0,1186.0,455.0,1161.0,472.0,1121.0,473.0,911.0,741.0,953.0,718.0,1002.0,699.0,1026.0,707.0,1050.0,697.0,1098.0,710.0,1135.0,734.0,1098.0,753.0,1069.0,763.0,1031.0,765.0,998.0,766.0,959.0,760.0,917.0,739.0,995.0,733.0,1026.0,730.0,1056.0,730.0,1130.0,732.0,1063.0,730.0,1028.0,732.0,999.0,734.0
2723,2723.0,711.31298828125,148.60574340820312,1271.3017578125,968.575439453125,696.0,501.0,710.0,587.0,722.0,667.0,740.0,738.0,768.0,807.0,823.0,854.0,872.0,886.0,935.0,899.0,1031.0,917.0,1121.0,895.0,1167.0,870.0,1207.0,836.0,1247.0,783.0,1268.0,711.0,1274.0,633.0,1288.0,561.0,1278.0,480.0,762.0,407.0,801.0,371.0,846.0,362.0,891.0,364.0,924.0,378.0,1089.0,368.0,1120.0,360.0,1163.0,355.0,1209.0,362.0,1244.0,390.0,1006.0,457.0,1010.0,511.0,1013.0,557.0,1019.0,600.0,965.0,636.0,987.0,645.0,1021.0,650.0,1048.0,644.0,1069.0,634.0,824.0,468.0,851.0,452.0,890.0,451.0,922.0,471.0,892.0,477.0,852.0,477.0,1090.0,468.0,1122.0,448.0,1161.0,445.0,1185.0,455.0,1160.0,473.0,1121.0,473.0,911.0,742.0,946.0,718.0,1001.0,700.0,1025.0,709.0,1049.0,698.0,1097.0,711.0,1135.0,735.0,1098.0,754.0,1068.0,764.0,1030.0,766.0,997.0,767.0,959.0,761.0,916.0,741.0,990.0,734.0,1025.0,731.0,1055.0,732.0,1130.0,734.0,1056.0,725.0,1027.0,733.0,991.0,734.0
2722,2722.0,712.0770263671875,151.06488037109375,1269.419677734375,966.8298950195312,698.0,499.0,711.0,585.0,723.0,657.0,741.0,735.0,768.0,803.0,823.0,851.0,871.0,879.0,935.0,899.0,1031.0,917.0,1122.0,895.0,1174.0,869.0,1209.0,834.0,1249.0,781.0,1269.0,702.0,1276.0,632.0,1290.0,560.0,1287.0,478.0,762.0,406.0,801.0,370.0,845.0,362.0,891.0,364.0,924.0,371.0,1087.0,368.0,1120.0,360.0,1162.0,356.0,1208.0,363.0,1243.0,390.0,1006.0,458.0,1010.0,512.0,1017.0,559.0,1019.0,601.0,965.0,636.0,987.0,645.0,1021.0,650.0,1048.0,644.0,1069.0,633.0,823.0,468.0,850.0,453.0,889.0,452.0,921.0,471.0,892.0,477.0,851.0,477.0,1089.0,468.0,1121.0,448.0,1161.0,445.0,1185.0,455.0,1160.0,473.0,1120.0,474.0,911.0,742.0,953.0,718.0,1002.0,699.0,1027.0,702.0,1050.0,696.0,1098.0,710.0,1135.0,734.0,1098.0,754.0,1068.0,764.0,1030.0,767.0,998.0,768.0,959.0,761.0,916.0,740.0,995.0,734.0,1026.0,731.0,1056.0,731.0,1130.0,733.0,1063.0,732.0,1027.0,733.0,999.0,735.0
2721,2721.0,710.6229248046875,148.0242919921875,1269.428955078125,968.941162109375,695.0,502.0,709.0,589.0,721.0,668.0,739.0,739.0,767.0,808.0,822.0,855.0,871.0,888.0,935.0,901.0,1031.0,919.0,1129.0,896.0,1173.0,870.0,1207.0,840.0,1248.0,783.0,1269.0,711.0,1275.0,633.0,1289.0,562.0,1284.0,481.0,760.0,407.0,800.0,377.0,844.0,362.0,890.0,364.0,930.0,378.0,1088.0,367.0,1121.0,360.0,1163.0,356.0,1209.0,363.0,1244.0,391.0,1006.0,458.0,1010.0,512.0,1017.0,558.0,1019.0,601.0,964.0,636.0,987.0,646.0,1022.0,650.0,1049.0,645.0,1069.0,634.0,822.0,469.0,849.0,453.0,889.0,452.0,921.0,472.0,891.0,479.0,850.0,479.0,1090.0,469.0,1122.0,448.0,1162.0,445.0,1186.0,456.0,1161.0,473.0,1121.0,474.0,910.0,742.0,952.0,718.0,1002.0,699.0,1027.0,703.0,1050.0,697.0,1098.0,710.0,1136.0,735.0,1098.0,754.0,1068.0,765.0,1030.0,767.0,998.0,768.0,959.0,762.0,915.0,741.0,995.0,734.0,1026.0,731.0,1063.0,731.0,1130.0,734.0,1063.0,732.0,1027.0,734.0,999.0,736.0
2720,2720.0,710.37890625,150.35043334960938,1270.1455078125,968.0279541015625,696.0,500.0,711.0,587.0,723.0,667.0,740.0,738.0,767.0,807.0,822.0,854.0,871.0,887.0,935.0,901.0,1031.0,919.0,1122.0,897.0,1172.0,871.0,1207.0,841.0,1247.0,783.0,1267.0,703.0,1274.0,632.0,1288.0,561.0,1283.0,480.0,762.0,406.0,801.0,371.0,846.0,362.0,891.0,365.0,930.0,372.0,1087.0,368.0,1119.0,360.0,1162.0,356.0,1208.0,363.0,1243.0,390.0,1006.0,458.0,1010.0,512.0,1017.0,559.0,1019.0,601.0,965.0,636.0,987.0,645.0,1021.0,650.0,1048.0,644.0,1069.0,633.0,823.0,469.0,851.0,453.0,890.0,452.0,921.0,472.0,892.0,478.0,851.0,478.0,1089.0,469.0,1121.0,449.0,1160.0,446.0,1185.0,456.0,1160.0,473.0,1120.0,474.0,910.0,742.0,945.0,718.0,1001.0,699.0,1026.0,703.0,1049.0,697.0,1098.0,709.0,1135.0,734.0,1098.0,754.0,1068.0,765.0,1030.0,767.0,997.0,768.0,958.0,761.0,915.0,741.0,990.0,734.0,1026.0,731.0,1056.0,732.0,1129.0,733.0,1063.0,725.0,1027.0,734.0,998.0,736.0
2719,2719.0,712.603759765625,148.00442504882812,1268.480224609375,967.167724609375,696.0,499.0,710.0,586.0,722.0,665.0,738.0,737.0,765.0,805.0,814.0,851.0,870.0,885.0,934.0,899.0,1030.0,917.0,1122.0,896.0,1166.0,870.0,1206.0,841.0,1247.0,784.0,1267.0,711.0,1274.0,634.0,1288.0,562.0,1284.0,487.0,762.0,405.0,802.0,370.0,847.0,361.0,891.0,364.0,932.0,378.0,1088.0,367.0,1121.0,359.0,1163.0,355.0,1209.0,363.0,1244.0,391.0,1006.0,457.0,1010.0,511.0,1017.0,558.0,1019.0,600.0,965.0,640.0,987.0,645.0,1021.0,649.0,1048.0,644.0,1069.0,633.0,824.0,467.0,851.0,451.0,890.0,451.0,922.0,471.0,892.0,477.0,852.0,477.0,1090.0,468.0,1122.0,448.0,1161.0,445.0,1186.0,455.0,1161.0,473.0,1121.0,473.0,910.0,741.0,946.0,718.0,1001.0,699.0,1025.0,708.0,1049.0,697.0,1097.0,710.0,1135.0,734.0,1098.0,753.0,1068.0,763.0,1030.0,765.0,997.0,767.0,958.0,760.0,916.0,740.0,994.0,733.0,1025.0,731.0,1055.0,731.0,1130.0,733.0,1062.0,731.0,1027.0,732.0,998.0,734.0
2718,2718.0,712.023681640625,150.510986328125,1269.45068359375,962.650146484375,697.0,496.0,710.0,582.0,721.0,655.0,738.0,734.0,765.0,803.0,813.0,850.0,870.0,885.0,935.0,905.0,1030.0,917.0,1121.0,896.0,1166.0,870.0,1206.0,841.0,1246.0,783.0,1267.0,711.0,1273.0,632.0,1287.0,561.0,1283.0,480.0,762.0,404.0,801.0,369.0,846.0,360.0,891.0,363.0,924.0,371.0,1088.0,367.0,1121.0,359.0,1163.0,355.0,1208.0,362.0,1243.0,390.0,1006.0,456.0,1009.0,510.0,1012.0,556.0,1018.0,599.0,965.0,639.0,987.0,644.0,1020.0,648.0,1047.0,643.0,1068.0,632.0,824.0,465.0,851.0,450.0,890.0,450.0,922.0,470.0,892.0,476.0,851.0,475.0,1089.0,467.0,1121.0,447.0,1161.0,445.0,1185.0,455.0,1160.0,472.0,1120.0,473.0,910.0,741.0,946.0,717.0,1001.0,699.0,1025.0,707.0,1049.0,696.0,1097.0,710.0,1135.0,734.0,1097.0,753.0,1068.0,763.0,1030.0,766.0,989.0,773.0,958.0,760.0,916.0,740.0,990.0,733.0,1025.0,730.0,1055.0,730.0,1129.0,732.0,1062.0,731.0,1026.0,732.0,998.0,734.0
2717,2717.0,710.290283203125,145.4110107421875,1270.439453125,964.6055908203125,696.0,499.0,710.0,585.0,721.0,664.0,739.0,736.0,767.0,805.0,822.0,853.0,871.0,886.0,935.0,905.0,1031.0,917.0,1129.0,895.0,1174.0,869.0,1208.0,840.0,1249.0,781.0,1269.0,709.0,1275.0,631.0,1289.0,559.0,1285.0,478.0,761.0,405.0,800.0,376.0,845.0,360.0,890.0,363.0,930.0,377.0,1087.0,367.0,1120.0,358.0,1162.0,353.0,1208.0,360.0,1244.0,387.0,1005.0,455.0,1008.0,510.0,1011.0,556.0,1018.0,599.0,964.0,640.0,986.0,644.0,1020.0,648.0,1048.0,643.0,1069.0,632.0,823.0,467.0,850.0,451.0,889.0,450.0,921.0,470.0,891.0,477.0,851.0,477.0,1089.0,466.0,1121.0,446.0,1162.0,443.0,1186.0,454.0,1161.0,471.0,1120.0,472.0,910.0,741.0,945.0,717.0,1000.0,697.0,1024.0,706.0,1049.0,695.0,1097.0,709.0,1135.0,734.0,1098.0,753.0,1068.0,763.0,1030.0,765.0,989.0,773.0,958.0,760.0,916.0,739.0,989.0,732.0,1025.0,729.0,1055.0,730.0,1130.0,733.0,1062.0,730.0,1026.0,732.0,998.0,734.0
2716,2716.0,711.2008666992188,150.95703125,1271.440673828125,968.279296875,697.0,501.0,711.0,587.0,723.0,658.0,741.0,736.0,768.0,805.0,823.0,852.0,871.0,879.0,934.0,899.0,1030.0,917.0,1121.0,895.0,1167.0,870.0,1208.0,835.0,1248.0,782.0,1268.0,702.0,1275.0,632.0,1289.0,561.0,1285.0,479.0,762.0,407.0,800.0,371.0,845.0,362.0,890.0,364.0,923.0,372.0,1087.0,368.0,1119.0,360.0,1161.0,351.0,1208.0,363.0,1243.0,389.0,1005.0,458.0,1009.0,512.0,1012.0,558.0,1019.0,601.0,964.0,636.0,987.0,645.0,1020.0,650.0,1047.0,644.0,1068.0,634.0,823.0,468.0,851.0,453.0,889.0,452.0,921.0,472.0,891.0,478.0,851.0,478.0,1089.0,469.0,1120.0,448.0,1159.0,439.0,1185.0,455.0,1159.0,473.0,1120.0,474.0,911.0,742.0,945.0,718.0,1000.0,699.0,1025.0,703.0,1048.0,697.0,1097.0,710.0,1135.0,735.0,1097.0,755.0,1067.0,765.0,1029.0,767.0,990.0,770.0,958.0,761.0,916.0,741.0,989.0,734.0,1024.0,732.0,1054.0,732.0,1123.0,734.0,1056.0,725.0,1026.0,734.0,990.0,735.0
2715,2715.0,710.776611328125,146.24273681640625,1270.9200439453125,964.2354125976562,696.0,498.0,710.0,585.0,721.0,664.0,738.0,736.0,766.0,804.0,821.0,852.0,870.0,885.0,935.0,904.0,1030.0,916.0,1122.0,895.0,1174.0,869.0,1209.0,839.0,1250.0,781.0,1270.0,708.0,1276.0,630.0,1289.0,558.0,1285.0,477.0,761.0,405.0,801.0,376.0,845.0,360.0,890.0,363.0,924.0,376.0,1087.0,366.0,1120.0,358.0,1162.0,354.0,1208.0,360.0,1244.0,387.0,1005.0,455.0,1008.0,510.0,1011.0,556.0,1018.0,599.0,964.0,639.0,986.0,643.0,1020.0,648.0,1047.0,642.0,1068.0,632.0,823.0,466.0,851.0,451.0,889.0,450.0,921.0,470.0,891.0,476.0,851.0,476.0,1090.0,466.0,1122.0,446.0,1162.0,443.0,1186.0,453.0,1161.0,471.0,1120.0,472.0,910.0,740.0,945.0,716.0,1000.0,697.0,1025.0,706.0,1048.0,695.0,1097.0,709.0,1135.0,733.0,1097.0,752.0,1067.0,763.0,1029.0,765.0,989.0,772.0,958.0,760.0,916.0,739.0,990.0,732.0,1025.0,729.0,1055.0,729.0,1129.0,732.0,1056.0,730.0,1026.0,731.0,990.0,733.0
2714,2714.0,711.6346435546875,147.43634033203125,1270.05810546875,964.3008422851562,697.0,496.0,710.0,582.0,721.0,655.0,738.0,733.0,764.0,803.0,813.0,849.0,869.0,884.0,933.0,898.0,1029.0,916.0,1121.0,895.0,1166.0,870.0,1207.0,839.0,1248.0,782.0,1268.0,709.0,1275.0,631.0,1289.0,559.0,1285.0,478.0,762.0,403.0,801.0,369.0,845.0,360.0,889.0,363.0,923.0,376.0,1086.0,366.0,1119.0,358.0,1161.0,354.0,1208.0,360.0,1244.0,388.0,1004.0,455.0,1008.0,509.0,1011.0,556.0,1012.0,598.0,964.0,639.0,985.0,643.0,1020.0,648.0,1047.0,642.0,1068.0,632.0,823.0,465.0,850.0,450.0,889.0,449.0,921.0,469.0,891.0,476.0,850.0,475.0,1089.0,466.0,1121.0,446.0,1161.0,443.0,1186.0,454.0,1160.0,471.0,1120.0,472.0,909.0,740.0,944.0,717.0,999.0,698.0,1024.0,707.0,1048.0,696.0,1097.0,709.0,1135.0,733.0,1097.0,752.0,1067.0,763.0,1029.0,765.0,988.0,772.0,957.0,760.0,914.0,739.0,988.0,732.0,1024.0,729.0,1054.0,730.0,1129.0,732.0,1056.0,730.0,1025.0,732.0,989.0,733.0
2713,2713.0,712.0257568359375,148.27743530273438,1270.96240234375,968.5615234375,696.0,500.0,710.0,586.0,723.0,658.0,740.0,736.0,767.0,805.0,822.0,852.0,871.0,879.0,934.0,898.0,1029.0,916.0,1120.0,895.0,1165.0,870.0,1206.0,841.0,1246.0,784.0,1267.0,712.0,1274.0,634.0,1288.0,563.0,1278.0,481.0,762.0,406.0,801.0,370.0,846.0,361.0,891.0,363.0,925.0,371.0,1089.0,367.0,1121.0,359.0,1164.0,355.0,1210.0,363.0,1245.0,390.0,1006.0,456.0,1010.0,511.0,1018.0,557.0,1020.0,600.0,964.0,635.0,987.0,644.0,1021.0,649.0,1048.0,643.0,1069.0,633.0,823.0,468.0,851.0,452.0,890.0,451.0,922.0,471.0,891.0,477.0,851.0,477.0,1090.0,468.0,1122.0,447.0,1161.0,445.0,1186.0,455.0,1160.0,473.0,1121.0,473.0,910.0,741.0,945.0,717.0,1001.0,698.0,1026.0,702.0,1049.0,696.0,1097.0,709.0,1136.0,735.0,1098.0,754.0,1068.0,764.0,1030.0,766.0,990.0,768.0,958.0,760.0,916.0,740.0,990.0,733.0,1025.0,730.0,1055.0,731.0,1130.0,733.0,1056.0,724.0,1026.0,733.0,990.0,734.0
2712,2712.0,711.0552978515625,147.58419799804688,1272.15576171875,964.622314453125,697.0,496.0,710.0,582.0,721.0,655.0,738.0,734.0,765.0,803.0,813.0,850.0,869.0,885.0,933.0,905.0,1029.0,918.0,1121.0,896.0,1167.0,871.0,1207.0,840.0,1247.0,782.0,1268.0,709.0,1274.0,630.0,1288.0,559.0,1278.0,477.0,763.0,404.0,802.0,369.0,846.0,360.0,891.0,363.0,924.0,377.0,1087.0,367.0,1119.0,359.0,1162.0,355.0,1208.0,361.0,1244.0,388.0,1005.0,456.0,1008.0,510.0,1011.0,557.0,1013.0,599.0,964.0,639.0,986.0,644.0,1020.0,649.0,1047.0,643.0,1068.0,632.0,824.0,465.0,851.0,450.0,890.0,450.0,922.0,469.0,891.0,476.0,851.0,475.0,1089.0,467.0,1121.0,447.0,1160.0,444.0,1185.0,455.0,1159.0,472.0,1120.0,473.0,909.0,741.0,945.0,717.0,1000.0,698.0,1024.0,707.0,1048.0,696.0,1097.0,709.0,1135.0,734.0,1097.0,753.0,1068.0,764.0,1029.0,766.0,989.0,773.0,957.0,760.0,915.0,740.0,989.0,733.0,1024.0,730.0,1055.0,730.0,1130.0,733.0,1056.0,731.0,1026.0,732.0,990.0,734.0
2711,2711.0,710.906494140625,147.23507690429688,1271.138671875,964.9495849609375,696.0,498.0,710.0,584.0,721.0,664.0,737.0,736.0,764.0,805.0,812.0,852.0,868.0,886.0,933.0,905.0,1028.0,917.0,1121.0,896.0,1166.0,871.0,1206.0,841.0,1246.0,784.0,1268.0,711.0,1274.0,632.0,1288.0,561.0,1285.0,486.0,762.0,405.0,801.0,376.0,846.0,360.0,891.0,363.0,924.0,376.0,1088.0,367.0,1121.0,359.0,1163.0,354.0,1209.0,361.0,1244.0,389.0,1006.0,455.0,1009.0,509.0,1012.0,556.0,1018.0,598.0,964.0,639.0,986.0,643.0,1020.0,648.0,1047.0,643.0,1069.0,632.0,823.0,466.0,851.0,450.0,889.0,450.0,921.0,470.0,892.0,476.0,851.0,476.0,1090.0,467.0,1122.0,447.0,1162.0,444.0,1186.0,455.0,1161.0,472.0,1121.0,473.0,910.0,741.0,945.0,717.0,1000.0,698.0,1024.0,707.0,1048.0,696.0,1097.0,710.0,1135.0,734.0,1097.0,753.0,1068.0,763.0,1029.0,765.0,989.0,772.0,957.0,760.0,915.0,739.0,989.0,733.0,1024.0,730.0,1055.0,730.0,1130.0,733.0,1056.0,730.0,1026.0,732.0,990.0,733.0
2710,2710.0,712.533935546875,146.98049926757812,1269.53662109375,964.709716796875,697.0,496.0,710.0,582.0,721.0,655.0,738.0,733.0,764.0,803.0,813.0,850.0,869.0,884.0,933.0,898.0,1029.0,915.0,1121.0,894.0,1166.0,869.0,1207.0,839.0,1248.0,782.0,1268.0,709.0,1274.0,631.0,1288.0,559.0,1284.0,478.0,762.0,403.0,801.0,369.0,845.0,360.0,890.0,363.0,924.0,376.0,1087.0,366.0,1119.0,358.0,1162.0,354.0,1208.0,360.0,1243.0,388.0,1005.0,455.0,1008.0,509.0,1011.0,556.0,1017.0,599.0,964.0,639.0,985.0,643.0,1019.0,648.0,1046.0,642.0,1067.0,632.0,823.0,465.0,850.0,450.0,889.0,449.0,921.0,469.0,891.0,476.0,851.0,475.0,1089.0,466.0,1121.0,446.0,1161.0,443.0,1185.0,454.0,1160.0,471.0,1120.0,472.0,910.0,741.0,945.0,716.0,999.0,697.0,1023.0,706.0,1047.0,696.0,1096.0,708.0,1135.0,733.0,1096.0,752.0,1067.0,763.0,1029.0,765.0,988.0,772.0,957.0,759.0,915.0,739.0,988.0,732.0,1023.0,729.0,1054.0,729.0,1129.0,732.0,1055.0,730.0,1025.0,731.0,989.0,733.0
2709,2709.0,710.760986328125,150.64727783203125,1270.419921875,965.1452026367188,696.0,499.0,710.0,585.0,722.0,658.0,739.0,736.0,766.0,805.0,821.0,853.0,870.0,886.0,935.0,899.0,1030.0,917.0,1122.0,895.0,1172.0,869.0,1207.0,839.0,1247.0,782.0,1268.0,710.0,1275.0,632.0,1289.0,561.0,1284.0,479.0,761.0,406.0,800.0,370.0,845.0,361.0,890.0,364.0,923.0,378.0,1087.0,367.0,1120.0,360.0,1162.0,355.0,1208.0,362.0,1243.0,390.0,1005.0,457.0,1010.0,511.0,1018.0,557.0,1019.0,599.0,964.0,635.0,987.0,644.0,1021.0,649.0,1048.0,643.0,1068.0,633.0,823.0,468.0,850.0,452.0,889.0,451.0,921.0,471.0,891.0,477.0,851.0,477.0,1089.0,468.0,1121.0,448.0,1160.0,445.0,1185.0,455.0,1160.0,472.0,1120.0,473.0,910.0,741.0,946.0,718.0,1001.0,699.0,1025.0,708.0,1049.0,697.0,1097.0,710.0,1135.0,734.0,1098.0,753.0,1068.0,763.0,1030.0,766.0,997.0,767.0,958.0,760.0,916.0,740.0,994.0,733.0,1025.0,731.0,1055.0,731.0,1130.0,733.0,1062.0,731.0,1027.0,732.0,998.0,734.0
2708,2708.0,712.7733764648438,150.26138305664062,1270.601806640625,966.8277587890625,697.0,498.0,705.0,583.0,721.0,656.0,738.0,735.0,766.0,803.0,814.0,850.0,870.0,878.0,934.0,898.0,1030.0,917.0,1121.0,895.0,1166.0,869.0,1207.0,839.0,1247.0,782.0,1267.0,702.0,1274.0,631.0,1288.0,560.0,1284.0,480.0,763.0,405.0,801.0,370.0,846.0,361.0,891.0,363.0,924.0,371.0,1087.0,366.0,1120.0,359.0,1162.0,355.0,1208.0,362.0,1243.0,390.0,1005.0,456.0,1009.0,510.0,1012.0,556.0,1019.0,599.0,964.0,634.0,987.0,643.0,1020.0,648.0,1048.0,643.0,1068.0,632.0,824.0,467.0,851.0,451.0,890.0,451.0,922.0,470.0,892.0,476.0,852.0,476.0,1089.0,468.0,1120.0,447.0,1160.0,445.0,1184.0,455.0,1159.0,472.0,1119.0,473.0,910.0,740.0,945.0,716.0,1000.0,698.0,1025.0,701.0,1048.0,695.0,1097.0,708.0,1136.0,734.0,1098.0,754.0,1068.0,764.0,1030.0,766.0,990.0,768.0,957.0,760.0,916.0,739.0,990.0,733.0,1025.0,730.0,1055.0,730.0,1130.0,733.0,1057.0,731.0,1026.0,733.0,990.0,734.0
2707,2707.0,710.5154418945312,149.1951904296875,1271.68994140625,964.4833984375,696.0,498.0,710.0,584.0,722.0,657.0,738.0,736.0,765.0,804.0,813.0,851.0,869.0,885.0,933.0,899.0,1029.0,917.0,1121.0,895.0,1165.0,870.0,1206.0,841.0,1246.0,784.0,1266.0,711.0,1273.0,633.0,1287.0,562.0,1277.0,480.0,762.0,405.0,801.0,370.0,846.0,360.0,891.0,363.0,924.0,376.0,1088.0,367.0,1121.0,359.0,1163.0,355.0,1209.0,362.0,1244.0,389.0,1006.0,456.0,1009.0,510.0,1012.0,556.0,1019.0,599.0,964.0,635.0,987.0,644.0,1021.0,649.0,1048.0,643.0,1068.0,632.0,823.0,466.0,851.0,451.0,889.0,450.0,921.0,470.0,891.0,476.0,851.0,476.0,1090.0,467.0,1122.0,447.0,1161.0,445.0,1186.0,455.0,1161.0,472.0,1121.0,473.0,910.0,741.0,945.0,717.0,1000.0,698.0,1025.0,707.0,1048.0,696.0,1097.0,709.0,1136.0,734.0,1098.0,753.0,1068.0,764.0,1029.0,765.0,989.0,773.0,958.0,760.0,915.0,739.0,990.0,733.0,1025.0,730.0,1055.0,730.0,1130.0,733.0,1057.0,731.0,1026.0,732.0,990.0,733.0
2706,2706.0,713.2498779296875,149.83648681640625,1269.072021484375,961.1895141601562,696.0,494.0,704.0,579.0,720.0,652.0,737.0,730.0,763.0,799.0,812.0,847.0,870.0,882.0,934.0,903.0,1028.0,915.0,1120.0,894.0,1166.0,868.0,1206.0,839.0,1247.0,782.0,1268.0,709.0,1274.0,631.0,1288.0,560.0,1284.0,485.0,763.0,403.0,801.0,369.0,845.0,360.0,891.0,362.0,924.0,370.0,1088.0,366.0,1120.0,359.0,1163.0,355.0,1208.0,362.0,1243.0,390.0,1005.0,455.0,1008.0,510.0,1011.0,556.0,1018.0,598.0,964.0,638.0,985.0,642.0,1019.0,647.0,1046.0,642.0,1067.0,632.0,824.0,464.0,851.0,450.0,890.0,449.0,922.0,469.0,892.0,475.0,852.0,475.0,1089.0,467.0,1121.0,447.0,1160.0,444.0,1185.0,455.0,1160.0,472.0,1120.0,472.0,910.0,739.0,945.0,715.0,999.0,696.0,1024.0,705.0,1047.0,694.0,1096.0,708.0,1134.0,733.0,1096.0,753.0,1066.0,764.0,1029.0,771.0,988.0,772.0,957.0,759.0,915.0,738.0,988.0,730.0,1023.0,728.0,1054.0,728.0,1128.0,732.0,1055.0,730.0,1025.0,732.0,989.0,733.0
2705,2705.0,710.3787841796875,149.26116943359375,1272.371826171875,963.8695678710938,697.0,497.0,710.0,583.0,722.0,656.0,739.0,735.0,765.0,804.0,813.0,851.0,870.0,885.0,934.0,899.0,1029.0,917.0,1120.0,895.0,1165.0,870.0,1205.0,841.0,1246.0,783.0,1266.0,711.0,1273.0,633.0,1287.0,562.0,1277.0,480.0,763.0,404.0,802.0,369.0,847.0,360.0,891.0,363.0,932.0,377.0,1089.0,366.0,1121.0,359.0,1163.0,355.0,1209.0,362.0,1244.0,390.0,1006.0,455.0,1010.0,510.0,1012.0,556.0,1019.0,599.0,964.0,634.0,987.0,643.0,1021.0,648.0,1048.0,643.0,1068.0,632.0,824.0,466.0,852.0,450.0,891.0,450.0,922.0,470.0,892.0,476.0,852.0,475.0,1089.0,467.0,1121.0,447.0,1161.0,445.0,1185.0,455.0,1160.0,472.0,1120.0,473.0,910.0,740.0,946.0,717.0,1001.0,698.0,1025.0,707.0,1049.0,696.0,1097.0,709.0,1135.0,734.0,1097.0,753.0,1068.0,763.0,1030.0,765.0,997.0,766.0,958.0,759.0,916.0,739.0,990.0,733.0,1025.0,730.0,1055.0,730.0,1129.0,733.0,1057.0,730.0,1026.0,732.0,990.0,733.0
2704,2704.0,712.7073974609375,148.27499389648438,1271.78076171875,961.3428955078125,697.0,495.0,705.0,580.0,720.0,653.0,737.0,732.0,764.0,800.0,812.0,848.0,870.0,884.0,934.0,903.0,1029.0,916.0,1122.0,895.0,1167.0,869.0,1208.0,839.0,1248.0,781.0,1269.0,708.0,1275.0,630.0,1288.0,558.0,1285.0,477.0,762.0,403.0,793.0,368.0,845.0,359.0,890.0,362.0,924.0,375.0,1080.0,366.0,1119.0,358.0,1162.0,354.0,1208.0,360.0,1244.0,387.0,1005.0,455.0,1008.0,509.0,1011.0,556.0,1013.0,598.0,964.0,638.0,986.0,642.0,1020.0,647.0,1047.0,641.0,1068.0,631.0,823.0,465.0,851.0,450.0,889.0,449.0,922.0,469.0,891.0,475.0,851.0,475.0,1089.0,466.0,1121.0,445.0,1160.0,443.0,1185.0,454.0,1159.0,471.0,1120.0,472.0,911.0,739.0,945.0,715.0,1000.0,696.0,1024.0,704.0,1048.0,694.0,1097.0,707.0,1135.0,732.0,1097.0,752.0,1068.0,763.0,1030.0,771.0,989.0,772.0,958.0,759.0,916.0,738.0,989.0,731.0,1024.0,728.0,1054.0,728.0,1123.0,731.0,1056.0,730.0,1026.0,731.0,990.0,733.0
2703,2703.0,711.4071655273438,148.01358032226562,1272.29248046875,964.34814453125,697.0,497.0,710.0,582.0,721.0,655.0,738.0,734.0,765.0,803.0,813.0,850.0,871.0,886.0,936.0,906.0,1031.0,919.0,1123.0,897.0,1167.0,870.0,1206.0,839.0,1247.0,781.0,1266.0,700.0,1274.0,629.0,1287.0,558.0,1276.0,477.0,763.0,404.0,802.0,369.0,846.0,360.0,892.0,363.0,932.0,378.0,1088.0,367.0,1120.0,359.0,1163.0,355.0,1208.0,361.0,1243.0,388.0,1006.0,456.0,1010.0,510.0,1018.0,557.0,1021.0,599.0,965.0,634.0,987.0,643.0,1021.0,648.0,1048.0,642.0,1069.0,632.0,824.0,466.0,851.0,450.0,890.0,450.0,922.0,470.0,892.0,476.0,852.0,475.0,1088.0,467.0,1120.0,446.0,1160.0,444.0,1184.0,454.0,1159.0,472.0,1119.0,472.0,910.0,741.0,946.0,716.0,1001.0,696.0,1027.0,700.0,1050.0,694.0,1098.0,707.0,1136.0,733.0,1098.0,753.0,1069.0,763.0,1031.0,765.0,990.0,773.0,958.0,760.0,916.0,739.0,990.0,732.0,1026.0,729.0,1056.0,729.0,1130.0,732.0,1058.0,730.0,1027.0,732.0,991.0,733.0
2702,2702.0,712.2930297851562,150.834716796875,1269.36181640625,957.62548828125,697.0,495.0,705.0,579.0,721.0,652.0,738.0,730.0,765.0,798.0,813.0,845.0,871.0,881.0,936.0,901.0,1030.0,914.0,1121.0,893.0,1173.0,868.0,1208.0,839.0,1248.0,780.0,1269.0,708.0,1283.0,638.0,1288.0,560.0,1284.0,485.0,763.0,404.0,801.0,369.0,845.0,360.0,890.0,363.0,924.0,376.0,1087.0,367.0,1120.0,359.0,1162.0,355.0,1208.0,363.0,1243.0,390.0,1005.0,456.0,1008.0,510.0,1011.0,556.0,1012.0,598.0,964.0,638.0,985.0,642.0,1019.0,647.0,1046.0,642.0,1067.0,632.0,824.0,465.0,851.0,450.0,890.0,449.0,922.0,469.0,892.0,475.0,852.0,475.0,1089.0,467.0,1121.0,447.0,1160.0,444.0,1185.0,455.0,1159.0,472.0,1120.0,472.0,910.0,740.0,945.0,716.0,998.0,697.0,1023.0,705.0,1047.0,694.0,1095.0,708.0,1133.0,732.0,1095.0,753.0,1065.0,769.0,1028.0,771.0,987.0,773.0,956.0,760.0,916.0,738.0,988.0,731.0,1023.0,728.0,1053.0,728.0,1128.0,731.0,1054.0,730.0,1024.0,732.0,989.0,733.0
2701,2701.0,711.6605224609375,148.61141967773438,1269.260009765625,962.51611328125,697.0,495.0,710.0,581.0,721.0,654.0,738.0,732.0,765.0,801.0,813.0,848.0,870.0,883.0,934.0,903.0,1029.0,916.0,1121.0,894.0,1166.0,869.0,1206.0,839.0,1246.0,781.0,1267.0,709.0,1273.0,631.0,1287.0,560.0,1282.0,479.0,762.0,403.0,801.0,368.0,845.0,359.0,890.0,362.0,923.0,376.0,1087.0,366.0,1120.0,358.0,1162.0,354.0,1208.0,361.0,1243.0,389.0,1005.0,455.0,1008.0,509.0,1011.0,555.0,1018.0,598.0,964.0,638.0,986.0,642.0,1020.0,647.0,1047.0,642.0,1068.0,632.0,823.0,465.0,850.0,450.0,889.0,449.0,921.0,469.0,891.0,475.0,851.0,475.0,1089.0,466.0,1121.0,446.0,1160.0,443.0,1185.0,454.0,1159.0,471.0,1120.0,472.0,910.0,739.0,945.0,715.0,1000.0,697.0,1024.0,706.0,1048.0,695.0,1096.0,708.0,1134.0,732.0,1097.0,751.0,1067.0,762.0,1029.0,764.0,989.0,771.0,957.0,758.0,915.0,738.0,989.0,731.0,1024.0,729.0,1054.0,729.0,1128.0,731.0,1056.0,729.0,1026.0,730.0,990.0,731.0
2700,2700.0,712.887451171875,148.99649047851562,1269.8896484375,957.2882080078125,695.0,495.0,704.0,580.0,720.0,660.0,737.0,731.0,764.0,799.0,813.0,847.0,870.0,882.0,935.0,902.0,1028.0,914.0,1120.0,893.0,1165.0,868.0,1206.0,838.0,1246.0,780.0,1267.0,707.0,1274.0,630.0,1288.0,559.0,1284.0,484.0,762.0,403.0,793.0,374.0,845.0,359.0,890.0,362.0,924.0,376.0,1087.0,366.0,1119.0,358.0,1162.0,354.0,1207.0,361.0,1243.0,388.0,1005.0,455.0,1008.0,509.0,1011.0,555.0,1013.0,598.0,963.0,637.0,985.0,641.0,1019.0,647.0,1046.0,641.0,1067.0,637.0,824.0,465.0,851.0,450.0,889.0,449.0,922.0,469.0,891.0,475.0,851.0,475.0,1088.0,466.0,1121.0,446.0,1160.0,443.0,1185.0,454.0,1159.0,471.0,1119.0,471.0,909.0,739.0,944.0,715.0,998.0,695.0,1023.0,704.0,1047.0,693.0,1095.0,707.0,1134.0,733.0,1095.0,752.0,1065.0,768.0,1028.0,771.0,987.0,772.0,956.0,759.0,915.0,738.0,988.0,730.0,1022.0,727.0,1053.0,728.0,1122.0,732.0,1054.0,729.0,1024.0,731.0,989.0,732.0
2699,2699.0,711.557861328125,147.77676391601562,1270.835205078125,962.392822265625,697.0,496.0,709.0,581.0,720.0,654.0,737.0,733.0,763.0,802.0,811.0,849.0,868.0,884.0,933.0,903.0,1028.0,915.0,1121.0,894.0,1167.0,869.0,1207.0,840.0,1248.0,782.0,1269.0,710.0,1275.0,631.0,1289.0,560.0,1285.0,479.0,762.0,403.0,801.0,368.0,845.0,359.0,890.0,362.0,924.0,376.0,1087.0,366.0,1120.0,358.0,1162.0,354.0,1208.0,361.0,1243.0,388.0,1005.0,455.0,1008.0,510.0,1011.0,556.0,1013.0,598.0,963.0,638.0,985.0,642.0,1019.0,647.0,1046.0,642.0,1067.0,631.0,823.0,465.0,850.0,450.0,889.0,449.0,921.0,469.0,891.0,475.0,851.0,475.0,1089.0,466.0,1121.0,446.0,1161.0,443.0,1185.0,454.0,1160.0,471.0,1120.0,472.0,909.0,739.0,944.0,715.0,998.0,696.0,1023.0,705.0,1047.0,694.0,1095.0,708.0,1134.0,732.0,1096.0,752.0,1066.0,763.0,1028.0,765.0,988.0,772.0,956.0,759.0,915.0,738.0,988.0,731.0,1023.0,728.0,1053.0,728.0,1122.0,731.0,1055.0,730.0,1024.0,731.0,989.0,732.0
2698,2698.0,710.8788452148438,147.090576171875,1271.522705078125,962.8741455078125,696.0,496.0,709.0,582.0,720.0,655.0,737.0,733.0,764.0,802.0,812.0,849.0,870.0,884.0,935.0,904.0,1030.0,916.0,1122.0,895.0,1174.0,869.0,1208.0,839.0,1248.0,780.0,1269.0,707.0,1275.0,629.0,1288.0,557.0,1284.0,476.0,762.0,403.0,801.0,374.0,845.0,359.0,890.0,362.0,923.0,376.0,1087.0,366.0,1119.0,358.0,1162.0,353.0,1207.0,360.0,1243.0,387.0,1005.0,455.0,1008.0,509.0,1011.0,556.0,1013.0,598.0,964.0,638.0,985.0,643.0,1019.0,648.0,1046.0,642.0,1067.0,631.0,823.0,465.0,850.0,450.0,889.0,449.0,921.0,469.0,891.0,475.0,851.0,475.0,1088.0,466.0,1120.0,446.0,1160.0,443.0,1185.0,453.0,1159.0,471.0,1119.0,472.0,910.0,740.0,945.0,716.0,999.0,697.0,1024.0,706.0,1048.0,695.0,1096.0,708.0,1135.0,732.0,1097.0,752.0,1067.0,763.0,1029.0,765.0,989.0,773.0,957.0,760.0,916.0,738.0,989.0,732.0,1024.0,729.0,1054.0,729.0,1129.0,731.0,1056.0,730.0,1025.0,731.0,990.0,733.0
2697,2697.0,710.1923828125,149.47979736328125,1270.007568359375,961.1011352539062,696.0,496.0,709.0,582.0,720.0,655.0,737.0,733.0,764.0,802.0,812.0,849.0,869.0,884.0,934.0,904.0,1029.0,916.0,1121.0,894.0,1172.0,868.0,1207.0,838.0,1247.0,781.0,1268.0,708.0,1274.0,630.0,1287.0,559.0,1283.0,477.0,761.0,404.0,800.0,368.0,844.0,359.0,889.0,362.0,922.0,376.0,1087.0,366.0,1119.0,358.0,1161.0,353.0,1207.0,360.0,1242.0,388.0,1004.0,454.0,1008.0,509.0,1011.0,555.0,1017.0,598.0,963.0,633.0,985.0,642.0,1019.0,647.0,1046.0,641.0,1067.0,631.0,822.0,465.0,849.0,450.0,888.0,449.0,921.0,469.0,890.0,475.0,850.0,475.0,1088.0,466.0,1120.0,446.0,1160.0,443.0,1184.0,453.0,1159.0,470.0,1119.0,471.0,909.0,739.0,945.0,715.0,999.0,696.0,1024.0,705.0,1047.0,695.0,1096.0,708.0,1134.0,732.0,1096.0,751.0,1067.0,762.0,1028.0,764.0,988.0,771.0,957.0,758.0,915.0,737.0,988.0,731.0,1024.0,728.0,1054.0,729.0,1129.0,731.0,1055.0,729.0,1025.0,730.0,989.0,732.0
2696,2696.0,712.7581176757812,148.29690551757812,1270.12646484375,959.516357421875,696.0,493.0,704.0,578.0,720.0,652.0,736.0,730.0,764.0,799.0,812.0,847.0,870.0,882.0,934.0,902.0,1029.0,915.0,1121.0,892.0,1173.0,866.0,1208.0,837.0,1248.0,778.0,1269.0,706.0,1275.0,629.0,1289.0,558.0,1284.0,477.0,762.0,403.0,801.0,368.0,845.0,359.0,891.0,362.0,924.0,376.0,1087.0,366.0,1119.0,358.0,1161.0,354.0,1207.0,360.0,1243.0,387.0,1005.0,455.0,1008.0,510.0,1012.0,556.0,1018.0,598.0,964.0,637.0,985.0,641.0,1019.0,647.0,1046.0,641.0,1067.0,631.0,824.0,465.0,851.0,450.0,889.0,449.0,921.0,468.0,891.0,475.0,852.0,475.0,1089.0,466.0,1121.0,446.0,1160.0,443.0,1185.0,453.0,1160.0,471.0,1120.0,471.0,910.0,739.0,944.0,714.0,998.0,696.0,1023.0,704.0,1047.0,694.0,1096.0,707.0,1134.0,732.0,1096.0,752.0,1066.0,763.0,1029.0,771.0,987.0,772.0,956.0,759.0,916.0,737.0,988.0,730.0,1023.0,728.0,1053.0,728.0,1122.0,731.0,1055.0,730.0,1024.0,731.0,989.0,732.0
2695,2695.0,711.16455078125,149.332763671875,1269.5885009765625,960.81201171875,696.0,496.0,704.0,580.0,720.0,654.0,737.0,732.0,764.0,801.0,812.0,848.0,869.0,883.0,934.0,904.0,1028.0,916.0,1120.0,894.0,1172.0,868.0,1207.0,839.0,1247.0,781.0,1268.0,708.0,1274.0,631.0,1287.0,559.0,1283.0,478.0,762.0,403.0,801.0,368.0,845.0,360.0,890.0,362.0,923.0,376.0,1087.0,366.0,1120.0,358.0,1162.0,354.0,1207.0,361.0,1242.0,389.0,1004.0,455.0,1008.0,509.0,1011.0,556.0,1017.0,598.0,964.0,638.0,985.0,642.0,1019.0,647.0,1046.0,642.0,1067.0,632.0,823.0,465.0,850.0,450.0,889.0,450.0,921.0,470.0,891.0,476.0,851.0,475.0,1089.0,467.0,1121.0,446.0,1160.0,444.0,1185.0,454.0,1159.0,471.0,1120.0,472.0,910.0,740.0,945.0,715.0,998.0,696.0,1023.0,705.0,1047.0,695.0,1095.0,708.0,1133.0,733.0,1095.0,752.0,1065.0,763.0,1028.0,765.0,988.0,772.0,957.0,759.0,915.0,738.0,988.0,731.0,1023.0,728.0,1053.0,729.0,1121.0,732.0,1054.0,730.0,1024.0,731.0,989.0,732.0
2694,2694.0,711.1307373046875,150.86428833007812,1269.75341796875,962.0545654296875,696.0,496.0,704.0,581.0,720.0,655.0,736.0,733.0,763.0,802.0,812.0,849.0,869.0,884.0,934.0,903.0,1029.0,916.0,1120.0,894.0,1165.0,869.0,1206.0,839.0,1246.0,781.0,1267.0,709.0,1274.0,631.0,1288.0,560.0,1284.0,479.0,761.0,404.0,792.0,369.0,844.0,360.0,889.0,363.0,922.0,370.0,1087.0,366.0,1119.0,358.0,1162.0,354.0,1208.0,362.0,1243.0,389.0,1004.0,455.0,1008.0,509.0,1011.0,556.0,1018.0,598.0,963.0,634.0,986.0,643.0,1019.0,648.0,1046.0,642.0,1067.0,631.0,822.0,466.0,849.0,451.0,889.0,450.0,921.0,470.0,891.0,476.0,850.0,475.0,1089.0,466.0,1120.0,446.0,1160.0,444.0,1184.0,454.0,1159.0,471.0,1119.0,472.0,909.0,740.0,944.0,716.0,999.0,697.0,1024.0,706.0,1047.0,695.0,1096.0,708.0,1134.0,732.0,1096.0,752.0,1067.0,762.0,1028.0,765.0,988.0,772.0,956.0,759.0,915.0,738.0,988.0,732.0,1024.0,729.0,1054.0,729.0,1129.0,731.0,1055.0,730.0,1025.0,731.0,989.0,733.0
2693,2693.0,711.2234497070312,152.619384765625,1269.34423828125,965.271240234375,697.0,498.0,710.0,583.0,722.0,655.0,739.0,733.0,766.0,802.0,814.0,849.0,870.0,885.0,933.0,900.0,1029.0,918.0,1120.0,895.0,1173.0,868.0,1208.0,833.0,1248.0,779.0,1269.0,700.0,1282.0,631.0,1289.0,558.0,1284.0,476.0,762.0,405.0,801.0,370.0,845.0,361.0,890.0,364.0,923.0,371.0,1086.0,367.0,1118.0,360.0,1160.0,350.0,1205.0,361.0,1240.0,388.0,1004.0,457.0,1008.0,510.0,1010.0,557.0,1017.0,600.0,963.0,634.0,985.0,644.0,1019.0,649.0,1046.0,643.0,1067.0,633.0,823.0,466.0,850.0,452.0,889.0,451.0,921.0,470.0,891.0,476.0,851.0,476.0,1088.0,468.0,1119.0,448.0,1158.0,439.0,1183.0,454.0,1158.0,472.0,1118.0,473.0,910.0,741.0,944.0,717.0,998.0,698.0,1023.0,702.0,1046.0,696.0,1095.0,709.0,1134.0,733.0,1095.0,754.0,1065.0,765.0,1027.0,767.0,987.0,774.0,956.0,761.0,915.0,740.0,988.0,733.0,1023.0,730.0,1053.0,731.0,1128.0,732.0,1054.0,732.0,1024.0,734.0,988.0,735.0
2692,2692.0,711.4383544921875,148.95046997070312,1270.502685546875,965.5693359375,697.0,497.0,709.0,583.0,721.0,656.0,738.0,734.0,764.0,803.0,812.0,850.0,869.0,886.0,933.0,906.0,1028.0,918.0,1120.0,896.0,1165.0,871.0,1205.0,840.0,1245.0,782.0,1266.0,710.0,1273.0,632.0,1287.0,560.0,1276.0,479.0,762.0,404.0,801.0,369.0,845.0,360.0,890.0,363.0,924.0,377.0,1088.0,367.0,1120.0,359.0,1162.0,354.0,1208.0,362.0,1243.0,389.0,1005.0,456.0,1008.0,510.0,1011.0,556.0,1018.0,599.0,963.0,634.0,985.0,643.0,1020.0,649.0,1047.0,643.0,1067.0,632.0,823.0,466.0,850.0,450.0,889.0,450.0,921.0,470.0,891.0,476.0,851.0,475.0,1088.0,467.0,1120.0,447.0,1160.0,444.0,1184.0,455.0,1158.0,472.0,1119.0,473.0,909.0,741.0,944.0,717.0,1000.0,698.0,1024.0,707.0,1048.0,696.0,1096.0,709.0,1135.0,734.0,1097.0,753.0,1067.0,763.0,1029.0,765.0,989.0,767.0,957.0,759.0,915.0,739.0,989.0,733.0,1024.0,730.0,1054.0,730.0,1129.0,733.0,1056.0,731.0,1025.0,732.0,989.0,733.0
2691,2691.0,709.78271484375,150.00271606445312,1268.5980224609375,962.5152587890625,695.0,499.0,709.0,585.0,721.0,664.0,738.0,736.0,765.0,805.0,820.0,853.0,869.0,886.0,934.0,905.0,1030.0,917.0,1127.0,894.0,1172.0,867.0,1206.0,837.0,1246.0,780.0,1266.0,700.0,1273.0,630.0,1286.0,558.0,1281.0,478.0,760.0,405.0,799.0,369.0,843.0,360.0,888.0,363.0,922.0,376.0,1086.0,366.0,1118.0,358.0,1160.0,354.0,1206.0,361.0,1241.0,388.0,1004.0,456.0,1008.0,510.0,1015.0,556.0,1018.0,598.0,963.0,639.0,985.0,643.0,1019.0,648.0,1046.0,642.0,1067.0,631.0,821.0,467.0,848.0,451.0,887.0,450.0,919.0,470.0,889.0,476.0,849.0,476.0,1087.0,466.0,1119.0,446.0,1159.0,443.0,1183.0,453.0,1158.0,471.0,1118.0,472.0,909.0,740.0,944.0,716.0,999.0,697.0,1023.0,706.0,1047.0,695.0,1096.0,708.0,1134.0,732.0,1096.0,752.0,1067.0,763.0,1028.0,765.0,988.0,773.0,956.0,760.0,914.0,739.0,988.0,732.0,1024.0,729.0,1054.0,729.0,1128.0,731.0,1061.0,730.0,1025.0,732.0,989.0,733.0
2690,2690.0,710.1934814453125,149.88723754882812,1269.938720703125,964.2099609375,696.0,500.0,710.0,586.0,721.0,665.0,738.0,736.0,765.0,805.0,813.0,851.0,869.0,886.0,933.0,899.0,1029.0,917.0,1120.0,895.0,1172.0,869.0,1206.0,840.0,1247.0,783.0,1268.0,711.0,1274.0,633.0,1288.0,561.0,1284.0,480.0,760.0,405.0,799.0,369.0,844.0,360.0,889.0,363.0,923.0,371.0,1087.0,367.0,1120.0,359.0,1162.0,355.0,1208.0,362.0,1243.0,390.0,1005.0,456.0,1008.0,510.0,1011.0,556.0,1018.0,599.0,963.0,634.0,986.0,644.0,1020.0,649.0,1047.0,643.0,1067.0,632.0,822.0,467.0,849.0,451.0,888.0,450.0,920.0,471.0,890.0,477.0,850.0,477.0,1089.0,468.0,1121.0,447.0,1160.0,444.0,1185.0,455.0,1160.0,472.0,1120.0,473.0,910.0,741.0,945.0,717.0,1000.0,698.0,1024.0,707.0,1048.0,696.0,1096.0,709.0,1134.0,734.0,1097.0,753.0,1067.0,764.0,1029.0,766.0,989.0,773.0,957.0,760.0,915.0,739.0,989.0,733.0,1024.0,730.0,1054.0,730.0,1129.0,733.0,1061.0,731.0,1026.0,732.0,989.0,733.0
2689,2689.0,709.5518798828125,149.63961791992188,1269.6319580078125,968.251220703125,696.0,499.0,710.0,586.0,721.0,658.0,739.0,736.0,766.0,805.0,821.0,852.0,870.0,879.0,934.0,899.0,1030.0,917.0,1121.0,895.0,1173.0,868.0,1209.0,833.0,1249.0,780.0,1269.0,700.0,1276.0,630.0,1289.0,558.0,1285.0,477.0,760.0,405.0,799.0,370.0,843.0,361.0,888.0,364.0,921.0,371.0,1086.0,367.0,1118.0,359.0,1160.0,355.0,1206.0,361.0,1241.0,388.0,1003.0,456.0,1007.0,511.0,1010.0,557.0,1017.0,600.0,963.0,635.0,985.0,644.0,1019.0,649.0,1046.0,643.0,1066.0,633.0,822.0,467.0,849.0,452.0,888.0,451.0,920.0,471.0,890.0,477.0,850.0,477.0,1087.0,467.0,1119.0,447.0,1158.0,438.0,1183.0,454.0,1158.0,472.0,1118.0,473.0,910.0,742.0,944.0,717.0,998.0,698.0,1023.0,702.0,1046.0,696.0,1095.0,709.0,1134.0,733.0,1096.0,754.0,1065.0,765.0,1028.0,767.0,988.0,769.0,956.0,761.0,915.0,740.0,988.0,734.0,1023.0,731.0,1053.0,731.0,1128.0,732.0,1054.0,725.0,1024.0,734.0,988.0,735.0
2688,2688.0,710.76171875,150.54840087890625,1267.472412109375,961.9257202148438,696.0,498.0,709.0,584.0,721.0,663.0,738.0,735.0,765.0,804.0,820.0,852.0,870.0,885.0,935.0,905.0,1030.0,916.0,1127.0,894.0,1171.0,868.0,1205.0,839.0,1245.0,781.0,1265.0,709.0,1272.0,631.0,1285.0,560.0,1280.0,480.0,760.0,405.0,799.0,370.0,843.0,361.0,889.0,364.0,922.0,377.0,1086.0,367.0,1118.0,359.0,1161.0,355.0,1206.0,362.0,1241.0,390.0,1004.0,457.0,1007.0,511.0,1010.0,557.0,1017.0,599.0,964.0,639.0,985.0,644.0,1019.0,648.0,1046.0,643.0,1067.0,632.0,822.0,467.0,849.0,451.0,888.0,451.0,920.0,471.0,890.0,477.0,849.0,477.0,1087.0,468.0,1119.0,447.0,1158.0,445.0,1183.0,455.0,1158.0,472.0,1118.0,473.0,910.0,741.0,951.0,716.0,1000.0,697.0,1024.0,706.0,1048.0,695.0,1096.0,708.0,1134.0,733.0,1096.0,752.0,1067.0,763.0,1030.0,772.0,997.0,772.0,958.0,760.0,915.0,739.0,994.0,731.0,1024.0,729.0,1061.0,729.0,1128.0,732.0,1061.0,730.0,1026.0,732.0,998.0,734.0
2687,2687.0,709.8817138671875,144.46896362304688,1270.5546875,967.331787109375,694.0,497.0,709.0,584.0,720.0,656.0,737.0,735.0,765.0,804.0,820.0,852.0,870.0,885.0,934.0,898.0,1030.0,917.0,1121.0,895.0,1167.0,868.0,1207.0,832.0,1247.0,778.0,1267.0,698.0,1274.0,628.0,1288.0,557.0,1277.0,475.0,759.0,405.0,799.0,376.0,843.0,360.0,889.0,363.0,922.0,376.0,1086.0,366.0,1118.0,358.0,1161.0,353.0,1207.0,360.0,1242.0,386.0,1004.0,455.0,1007.0,510.0,1011.0,557.0,1017.0,600.0,963.0,639.0,985.0,644.0,1019.0,649.0,1046.0,643.0,1067.0,632.0,822.0,466.0,849.0,451.0,888.0,449.0,920.0,469.0,890.0,476.0,850.0,476.0,1088.0,466.0,1120.0,446.0,1160.0,443.0,1184.0,453.0,1159.0,470.0,1119.0,471.0,910.0,741.0,944.0,717.0,999.0,698.0,1024.0,707.0,1047.0,696.0,1096.0,708.0,1136.0,733.0,1097.0,753.0,1067.0,764.0,1029.0,766.0,988.0,773.0,957.0,760.0,915.0,739.0,989.0,733.0,1024.0,730.0,1054.0,730.0,1130.0,732.0,1056.0,731.0,1026.0,732.0,989.0,734.0
2686,2686.0,710.2451171875,151.939208984375,1268.185302734375,962.187744140625,696.0,498.0,709.0,584.0,720.0,656.0,737.0,734.0,764.0,803.0,812.0,850.0,868.0,886.0,934.0,906.0,1028.0,918.0,1120.0,895.0,1171.0,868.0,1205.0,837.0,1246.0,780.0,1266.0,700.0,1274.0,630.0,1287.0,559.0,1283.0,478.0,761.0,405.0,799.0,370.0,844.0,361.0,889.0,364.0,922.0,371.0,1086.0,367.0,1119.0,360.0,1161.0,355.0,1207.0,362.0,1242.0,389.0,1004.0,457.0,1007.0,511.0,1011.0,557.0,1017.0,600.0,963.0,640.0,985.0,644.0,1019.0,649.0,1046.0,643.0,1066.0,633.0,822.0,467.0,849.0,452.0,888.0,451.0,920.0,471.0,890.0,477.0,850.0,477.0,1088.0,468.0,1119.0,448.0,1159.0,445.0,1183.0,454.0,1158.0,472.0,1118.0,473.0,909.0,741.0,944.0,717.0,998.0,698.0,1023.0,707.0,1047.0,696.0,1095.0,709.0,1134.0,733.0,1096.0,753.0,1066.0,764.0,1028.0,766.0,987.0,774.0,956.0,761.0,914.0,740.0,988.0,733.0,1023.0,730.0,1053.0,730.0,1128.0,732.0,1060.0,731.0,1024.0,733.0,988.0,734.0
2685,2685.0,709.2627563476562,149.2027587890625,1268.0908203125,964.9622802734375,694.0,499.0,708.0,585.0,720.0,664.0,737.0,735.0,764.0,804.0,819.0,852.0,869.0,885.0,934.0,898.0,1030.0,917.0,1128.0,894.0,1172.0,869.0,1206.0,839.0,1246.0,781.0,1266.0,709.0,1273.0,632.0,1286.0,561.0,1282.0,480.0,760.0,405.0,799.0,370.0,843.0,360.0,889.0,363.0,922.0,370.0,1086.0,366.0,1119.0,358.0,1161.0,354.0,1207.0,362.0,1242.0,389.0,1004.0,456.0,1008.0,510.0,1016.0,557.0,1017.0,599.0,963.0,635.0,986.0,644.0,1020.0,648.0,1047.0,643.0,1067.0,632.0,821.0,467.0,849.0,451.0,888.0,450.0,920.0,471.0,890.0,477.0,849.0,476.0,1088.0,467.0,1120.0,447.0,1159.0,444.0,1184.0,454.0,1158.0,472.0,1119.0,472.0,911.0,740.0,951.0,717.0,1000.0,698.0,1024.0,707.0,1048.0,696.0,1096.0,709.0,1134.0,733.0,1097.0,753.0,1067.0,763.0,1029.0,766.0,996.0,773.0,957.0,760.0,916.0,739.0,994.0,732.0,1024.0,730.0,1061.0,730.0,1129.0,732.0,1061.0,731.0,1026.0,732.0,998.0,734.0
2684,2684.0,711.207763671875,149.00155639648438,1268.150390625,965.678466796875,695.0,499.0,709.0,585.0,721.0,665.0,738.0,736.0,765.0,805.0,813.0,851.0,869.0,886.0,934.0,905.0,1029.0,917.0,1121.0,895.0,1172.0,868.0,1206.0,839.0,1247.0,781.0,1268.0,710.0,1275.0,632.0,1288.0,560.0,1283.0,479.0,760.0,405.0,799.0,370.0,843.0,361.0,888.0,363.0,922.0,377.0,1086.0,367.0,1119.0,359.0,1161.0,354.0,1207.0,362.0,1243.0,389.0,1004.0,456.0,1007.0,510.0,1010.0,557.0,1017.0,599.0,963.0,635.0,985.0,644.0,1019.0,649.0,1046.0,643.0,1067.0,632.0,821.0,467.0,849.0,452.0,888.0,451.0,920.0,471.0,890.0,477.0,849.0,477.0,1088.0,467.0,1120.0,447.0,1159.0,444.0,1184.0,454.0,1159.0,472.0,1119.0,473.0,910.0,741.0,944.0,717.0,999.0,698.0,1023.0,707.0,1047.0,696.0,1096.0,709.0,1134.0,733.0,1096.0,753.0,1066.0,764.0,1028.0,766.0,988.0,774.0,956.0,761.0,915.0,740.0,988.0,733.0,1023.0,730.0,1054.0,730.0,1128.0,732.0,1060.0,731.0,1025.0,733.0,989.0,734.0
2683,2683.0,709.5032958984375,147.57894897460938,1269.015380859375,968.331298828125,695.0,501.0,709.0,588.0,722.0,667.0,739.0,738.0,774.0,806.0,823.0,852.0,872.0,878.0,936.0,898.0,1031.0,916.0,1128.0,893.0,1173.0,868.0,1207.0,833.0,1247.0,780.0,1268.0,701.0,1274.0,631.0,1288.0,559.0,1283.0,478.0,759.0,406.0,798.0,370.0,843.0,361.0,888.0,363.0,922.0,370.0,1086.0,366.0,1118.0,358.0,1161.0,354.0,1207.0,361.0,1242.0,388.0,1004.0,456.0,1008.0,511.0,1016.0,558.0,1018.0,600.0,963.0,635.0,986.0,644.0,1020.0,649.0,1047.0,643.0,1068.0,632.0,821.0,468.0,848.0,452.0,888.0,451.0,920.0,471.0,890.0,477.0,849.0,477.0,1088.0,468.0,1120.0,447.0,1160.0,444.0,1184.0,454.0,1159.0,472.0,1119.0,473.0,911.0,741.0,952.0,717.0,1000.0,698.0,1025.0,701.0,1048.0,696.0,1097.0,709.0,1134.0,734.0,1097.0,754.0,1067.0,764.0,1029.0,767.0,996.0,768.0,958.0,761.0,916.0,740.0,994.0,733.0,1025.0,730.0,1054.0,731.0,1129.0,732.0,1061.0,732.0,1026.0,733.0,998.0,735.0
2682,2682.0,711.5813598632812,148.08038330078125,1269.267333984375,964.7280883789062,695.0,496.0,708.0,582.0,720.0,655.0,737.0,734.0,764.0,803.0,812.0,850.0,869.0,885.0,935.0,906.0,1029.0,917.0,1121.0,895.0,1172.0,869.0,1206.0,838.0,1247.0,781.0,1267.0,708.0,1273.0,631.0,1287.0,559.0,1283.0,478.0,760.0,404.0,791.0,369.0,843.0,360.0,889.0,363.0,922.0,376.0,1086.0,366.0,1119.0,358.0,1161.0,353.0,1207.0,360.0,1242.0,388.0,1004.0,455.0,1007.0,510.0,1011.0,556.0,1018.0,599.0,963.0,634.0,985.0,643.0,1020.0,648.0,1046.0,642.0,1067.0,631.0,822.0,466.0,849.0,450.0,888.0,450.0,920.0,469.0,890.0,476.0,850.0,475.0,1088.0,466.0,1120.0,446.0,1159.0,444.0,1184.0,454.0,1158.0,471.0,1119.0,472.0,909.0,740.0,945.0,716.0,999.0,697.0,1024.0,706.0,1048.0,695.0,1096.0,708.0,1134.0,732.0,1097.0,753.0,1067.0,763.0,1029.0,765.0,988.0,773.0,957.0,760.0,915.0,739.0,989.0,732.0,1024.0,729.0,1054.0,729.0,1128.0,731.0,1062.0,730.0,1026.0,732.0,989.0,733.0
2681,2681.0,709.263427734375,153.193603515625,1268.716552734375,963.357177734375,695.0,498.0,709.0,583.0,721.0,656.0,739.0,733.0,767.0,802.0,821.0,850.0,870.0,885.0,934.0,899.0,1031.0,917.0,1128.0,894.0,1173.0,867.0,1208.0,832.0,1247.0,779.0,1267.0,700.0,1273.0,629.0,1287.0,558.0,1282.0,476.0,759.0,405.0,799.0,369.0,844.0,361.0,888.0,363.0,921.0,371.0,1085.0,367.0,1117.0,359.0,1159.0,349.0,1204.0,360.0,1240.0,388.0,1003.0,457.0,1007.0,511.0,1010.0,557.0,1017.0,600.0,963.0,635.0,985.0,644.0,1019.0,649.0,1046.0,643.0,1067.0,632.0,821.0,467.0,849.0,452.0,888.0,451.0,919.0,470.0,889.0,477.0,849.0,476.0,1087.0,467.0,1118.0,447.0,1157.0,438.0,1182.0,454.0,1157.0,471.0,1117.0,473.0,910.0,741.0,944.0,717.0,999.0,698.0,1024.0,701.0,1047.0,696.0,1096.0,708.0,1134.0,733.0,1096.0,753.0,1067.0,764.0,1028.0,767.0,988.0,775.0,957.0,762.0,915.0,740.0,988.0,733.0,1024.0,730.0,1054.0,730.0,1128.0,732.0,1061.0,732.0,1025.0,734.0,997.0,735.0
2680,2680.0,711.4877319335938,150.56680297851562,1269.027099609375,964.39599609375,696.0,499.0,709.0,584.0,721.0,657.0,738.0,734.0,766.0,802.0,814.0,849.0,870.0,884.0,934.0,898.0,1029.0,916.0,1121.0,893.0,1172.0,867.0,1207.0,837.0,1247.0,780.0,1268.0,709.0,1274.0,631.0,1288.0,560.0,1283.0,479.0,761.0,405.0,792.0,369.0,844.0,361.0,889.0,363.0,922.0,370.0,1086.0,367.0,1118.0,359.0,1160.0,349.0,1206.0,361.0,1241.0,389.0,1004.0,456.0,1008.0,510.0,1011.0,556.0,1018.0,599.0,963.0,634.0,985.0,643.0,1019.0,648.0,1046.0,642.0,1067.0,632.0,822.0,467.0,849.0,452.0,888.0,451.0,921.0,470.0,890.0,476.0,850.0,476.0,1088.0,467.0,1119.0,447.0,1159.0,444.0,1183.0,454.0,1158.0,471.0,1118.0,472.0,910.0,741.0,944.0,716.0,999.0,698.0,1024.0,707.0,1047.0,696.0,1096.0,709.0,1134.0,732.0,1096.0,753.0,1067.0,763.0,1029.0,766.0,988.0,774.0,957.0,760.0,915.0,739.0,989.0,733.0,1024.0,730.0,1054.0,730.0,1128.0,731.0,1055.0,730.0,1025.0,732.0,989.0,733.0
2679,2679.0,710.7772827148438,149.2105712890625,1268.004638671875,963.1551513671875,696.0,497.0,710.0,583.0,721.0,663.0,738.0,734.0,765.0,804.0,813.0,851.0,870.0,886.0,935.0,907.0,1030.0,918.0,1128.0,895.0,1173.0,868.0,1207.0,837.0,1247.0,779.0,1267.0,699.0,1274.0,629.0,1288.0,558.0,1283.0,476.0,761.0,405.0,800.0,369.0,844.0,360.0,889.0,363.0,922.0,376.0,1086.0,366.0,1119.0,359.0,1161.0,354.0,1207.0,361.0,1242.0,388.0,1004.0,456.0,1008.0,511.0,1010.0,557.0,1017.0,600.0,963.0,640.0,985.0,644.0,1020.0,649.0,1047.0,643.0,1068.0,632.0,822.0,467.0,849.0,451.0,888.0,450.0,920.0,470.0,890.0,477.0,850.0,476.0,1088.0,467.0,1120.0,447.0,1159.0,444.0,1184.0,453.0,1159.0,471.0,1119.0,472.0,911.0,742.0,945.0,716.0,1000.0,697.0,1025.0,706.0,1048.0,695.0,1097.0,708.0,1134.0,733.0,1097.0,753.0,1067.0,765.0,1030.0,773.0,989.0,775.0,957.0,762.0,916.0,740.0,994.0,732.0,1025.0,729.0,1055.0,729.0,1129.0,732.0,1062.0,732.0,1026.0,733.0,998.0,735.0
2678,2678.0,710.3575439453125,151.58526611328125,1268.780517578125,963.0292358398438,696.0,498.0,709.0,584.0,721.0,656.0,738.0,734.0,765.0,802.0,813.0,849.0,869.0,884.0,934.0,905.0,1029.0,918.0,1127.0,894.0,1173.0,868.0,1207.0,837.0,1247.0,780.0,1266.0,701.0,1273.0,631.0,1287.0,560.0,1282.0,479.0,761.0,406.0,791.0,370.0,843.0,361.0,888.0,363.0,921.0,371.0,1086.0,367.0,1118.0,359.0,1160.0,355.0,1206.0,362.0,1241.0,390.0,1003.0,457.0,1007.0,511.0,1010.0,557.0,1017.0,600.0,963.0,635.0,985.0,644.0,1019.0,649.0,1046.0,643.0,1067.0,632.0,822.0,468.0,849.0,452.0,888.0,451.0,920.0,471.0,890.0,477.0,850.0,477.0,1088.0,468.0,1119.0,448.0,1158.0,445.0,1183.0,455.0,1158.0,472.0,1118.0,473.0,910.0,741.0,944.0,716.0,999.0,697.0,1024.0,701.0,1047.0,695.0,1095.0,708.0,1133.0,733.0,1096.0,753.0,1066.0,764.0,1029.0,773.0,987.0,775.0,956.0,761.0,915.0,739.0,988.0,732.0,1023.0,729.0,1054.0,730.0,1128.0,732.0,1055.0,731.0,1025.0,733.0,988.0,734.0
2677,2677.0,710.1118774414062,148.25210571289062,1268.484130859375,961.3416748046875,696.0,496.0,710.0,582.0,721.0,655.0,738.0,733.0,764.0,802.0,813.0,849.0,869.0,884.0,934.0,905.0,1029.0,917.0,1120.0,895.0,1172.0,868.0,1206.0,838.0,1246.0,780.0,1267.0,707.0,1273.0,629.0,1287.0,558.0,1282.0,477.0,762.0,404.0,801.0,369.0,845.0,359.0,890.0,362.0,930.0,376.0,1087.0,366.0,1120.0,358.0,1162.0,354.0,1207.0,361.0,1242.0,388.0,1004.0,455.0,1008.0,510.0,1011.0,557.0,1017.0,599.0,963.0,639.0,985.0,643.0,1019.0,648.0,1046.0,642.0,1067.0,632.0,823.0,465.0,850.0,450.0,889.0,449.0,920.0,469.0,891.0,475.0,851.0,475.0,1088.0,466.0,1120.0,447.0,1160.0,444.0,1184.0,454.0,1159.0,471.0,1119.0,472.0,910.0,740.0,944.0,715.0,999.0,696.0,1023.0,705.0,1047.0,694.0,1095.0,708.0,1133.0,733.0,1095.0,753.0,1065.0,770.0,1028.0,773.0,987.0,775.0,956.0,761.0,915.0,739.0,988.0,731.0,1023.0,728.0,1053.0,729.0,1128.0,732.0,1055.0,731.0,1024.0,733.0,989.0,735.0
2676,2676.0,711.5093994140625,143.30813598632812,1267.7840576171875,963.0616455078125,695.0,498.0,709.0,585.0,720.0,663.0,737.0,734.0,765.0,803.0,820.0,850.0,870.0,883.0,934.0,903.0,1029.0,915.0,1121.0,893.0,1172.0,867.0,1207.0,837.0,1248.0,780.0,1269.0,707.0,1275.0,629.0,1289.0,558.0,1286.0,483.0,760.0,404.0,790.0,375.0,842.0,360.0,888.0,362.0,921.0,375.0,1086.0,366.0,1119.0,357.0,1161.0,353.0,1207.0,360.0,1243.0,387.0,1005.0,462.0,1007.0,510.0,1009.0,556.0,1011.0,598.0,963.0,638.0,984.0,642.0,1018.0,647.0,1045.0,641.0,1067.0,637.0,821.0,466.0,848.0,450.0,887.0,449.0,920.0,469.0,890.0,475.0,849.0,476.0,1088.0,465.0,1120.0,445.0,1160.0,442.0,1185.0,453.0,1160.0,470.0,1119.0,471.0,910.0,740.0,943.0,714.0,997.0,695.0,1022.0,704.0,1046.0,693.0,1094.0,707.0,1133.0,733.0,1094.0,754.0,1064.0,770.0,1027.0,774.0,986.0,775.0,955.0,762.0,915.0,738.0,987.0,730.0,1022.0,727.0,1052.0,728.0,1121.0,732.0,1053.0,731.0,1023.0,733.0,988.0,735.0
2675,2675.0,710.5548095703125,145.21810913085938,1271.49169921875,965.6318359375,696.0,497.0,710.0,583.0,721.0,655.0,738.0,733.0,765.0,802.0,813.0,849.0,870.0,884.0,934.0,898.0,1029.0,916.0,1122.0,894.0,1166.0,869.0,1206.0,838.0,1247.0,779.0,1267.0,699.0,1274.0,629.0,1287.0,558.0,1277.0,476.0,761.0,403.0,800.0,375.0,844.0,359.0,889.0,362.0,922.0,376.0,1086.0,366.0,1119.0,358.0,1161.0,354.0,1207.0,360.0,1243.0,387.0,1004.0,455.0,1008.0,510.0,1011.0,556.0,1018.0,599.0,963.0,634.0,985.0,643.0,1019.0,648.0,1047.0,642.0,1067.0,631.0,822.0,466.0,849.0,450.0,888.0,449.0,920.0,469.0,890.0,475.0,850.0,475.0,1088.0,466.0,1120.0,446.0,1159.0,443.0,1184.0,453.0,1158.0,471.0,1119.0,471.0,909.0,740.0,944.0,716.0,999.0,697.0,1024.0,706.0,1048.0,695.0,1096.0,708.0,1135.0,732.0,1097.0,753.0,1067.0,763.0,1029.0,766.0,989.0,773.0,957.0,759.0,915.0,738.0,989.0,732.0,1024.0,729.0,1054.0,729.0,1123.0,731.0,1056.0,730.0,1026.0,732.0,989.0,733.0
2674,2674.0,710.71875,146.71746826171875,1270.19091796875,965.6028442382812,696.0,497.0,709.0,583.0,721.0,655.0,739.0,733.0,766.0,803.0,821.0,850.0,871.0,884.0,934.0,899.0,1030.0,916.0,1121.0,893.0,1166.0,867.0,1207.0,831.0,1247.0,778.0,1268.0,699.0,1275.0,629.0,1289.0,557.0,1284.0,476.0,761.0,404.0,800.0,369.0,844.0,360.0,889.0,363.0,923.0,376.0,1087.0,366.0,1119.0,358.0,1161.0,354.0,1207.0,360.0,1243.0,387.0,1004.0,455.0,1007.0,510.0,1011.0,556.0,1018.0,599.0,963.0,634.0,985.0,643.0,1019.0,648.0,1046.0,642.0,1067.0,632.0,822.0,466.0,849.0,451.0,888.0,450.0,920.0,470.0,890.0,476.0,850.0,476.0,1088.0,466.0,1120.0,446.0,1160.0,444.0,1184.0,454.0,1159.0,471.0,1119.0,472.0,909.0,740.0,944.0,716.0,999.0,698.0,1024.0,707.0,1047.0,696.0,1096.0,708.0,1134.0,732.0,1096.0,753.0,1067.0,763.0,1028.0,766.0,988.0,773.0,956.0,760.0,914.0,738.0,988.0,732.0,1024.0,729.0,1054.0,730.0,1122.0,731.0,1055.0,730.0,1025.0,732.0,989.0,733.0
2673,2673.0,710.109130859375,146.917724609375,1272.046875,969.2313232421875,696.0,499.0,709.0,586.0,721.0,658.0,738.0,736.0,765.0,805.0,819.0,853.0,869.0,880.0,933.0,900.0,1029.0,918.0,1121.0,897.0,1167.0,871.0,1207.0,836.0,1247.0,783.0,1268.0,702.0,1275.0,632.0,1289.0,560.0,1279.0,478.0,761.0,404.0,800.0,368.0,844.0,359.0,889.0,362.0,923.0,369.0,1087.0,365.0,1119.0,358.0,1162.0,353.0,1208.0,361.0,1243.0,388.0,1004.0,455.0,1008.0,509.0,1011.0,556.0,1013.0,598.0,963.0,634.0,985.0,643.0,1019.0,648.0,1046.0,636.0,1067.0,632.0,822.0,466.0,850.0,450.0,889.0,450.0,921.0,469.0,890.0,475.0,850.0,475.0,1088.0,467.0,1120.0,446.0,1160.0,444.0,1184.0,454.0,1159.0,471.0,1119.0,472.0,909.0,741.0,943.0,716.0,998.0,697.0,1024.0,701.0,1047.0,695.0,1096.0,708.0,1135.0,734.0,1097.0,753.0,1067.0,764.0,1029.0,767.0,988.0,769.0,955.0,760.0,914.0,740.0,988.0,733.0,1024.0,730.0,1054.0,725.0,1123.0,732.0,1055.0,725.0,1025.0,733.0,988.0,734.0
2672,2672.0,709.514404296875,145.54367065429688,1268.749755859375,959.6600341796875,696.0,497.0,709.0,583.0,720.0,662.0,737.0,733.0,765.0,802.0,820.0,849.0,871.0,882.0,935.0,903.0,1031.0,915.0,1128.0,892.0,1173.0,866.0,1207.0,836.0,1248.0,778.0,1268.0,706.0,1275.0,628.0,1288.0,556.0,1283.0,476.0,760.0,403.0,800.0,373.0,844.0,358.0,889.0,361.0,922.0,374.0,1086.0,365.0,1119.0,357.0,1161.0,352.0,1207.0,359.0,1242.0,386.0,1004.0,453.0,1007.0,509.0,1009.0,555.0,1016.0,598.0,963.0,637.0,984.0,641.0,1019.0,646.0,1046.0,640.0,1067.0,630.0,822.0,464.0,849.0,449.0,888.0,448.0,920.0,467.0,890.0,474.0,850.0,474.0,1088.0,465.0,1120.0,445.0,1160.0,442.0,1185.0,452.0,1159.0,470.0,1119.0,470.0,909.0,738.0,943.0,713.0,998.0,694.0,1023.0,703.0,1046.0,692.0,1095.0,706.0,1133.0,731.0,1095.0,752.0,1065.0,769.0,1028.0,772.0,986.0,774.0,955.0,760.0,914.0,737.0,987.0,729.0,1023.0,726.0,1053.0,727.0,1127.0,730.0,1054.0,729.0,1024.0,732.0,988.0,733.0
2671,2671.0,709.2991943359375,146.63330078125,1270.355224609375,953.7213134765625,697.0,506.0,704.0,583.0,721.0,663.0,738.0,733.0,767.0,801.0,822.0,854.0,872.0,882.0,937.0,903.0,1031.0,921.0,1129.0,891.0,1172.0,865.0,1207.0,837.0,1247.0,778.0,1267.0,706.0,1282.0,636.0,1288.0,559.0,1284.0,484.0,761.0,404.0,791.0,375.0,843.0,359.0,888.0,361.0,921.0,375.0,1086.0,364.0,1119.0,356.0,1162.0,352.0,1208.0,359.0,1243.0,386.0,1006.0,461.0,1008.0,509.0,1011.0,555.0,1017.0,597.0,964.0,637.0,986.0,641.0,1020.0,645.0,1047.0,640.0,1068.0,636.0,822.0,466.0,849.0,450.0,888.0,449.0,920.0,468.0,891.0,479.0,850.0,481.0,1089.0,465.0,1121.0,445.0,1161.0,442.0,1185.0,452.0,1160.0,470.0,1119.0,470.0,911.0,744.0,945.0,713.0,1000.0,699.0,1025.0,703.0,1048.0,692.0,1097.0,707.0,1134.0,732.0,1096.0,752.0,1067.0,768.0,1030.0,771.0,988.0,772.0,958.0,759.0,916.0,737.0,994.0,729.0,1024.0,726.0,1055.0,727.0,1128.0,731.0,1061.0,729.0,1026.0,731.0,998.0,733.0
2670,2670.0,709.4293212890625,145.66549682617188,1271.4658203125,955.223388671875,696.0,497.0,704.0,581.0,721.0,661.0,738.0,732.0,765.0,800.0,814.0,846.0,871.0,880.0,936.0,901.0,1031.0,913.0,1129.0,889.0,1175.0,863.0,1209.0,834.0,1249.0,776.0,1270.0,704.0,1283.0,628.0,1290.0,556.0,1286.0,481.0,760.0,404.0,790.0,374.0,842.0,359.0,888.0,361.0,921.0,374.0,1086.0,364.0,1119.0,356.0,1161.0,352.0,1208.0,359.0,1243.0,385.0,1005.0,461.0,1007.0,509.0,1010.0,555.0,1017.0,597.0,964.0,636.0,986.0,641.0,1019.0,645.0,1047.0,640.0,1068.0,636.0,822.0,466.0,848.0,449.0,888.0,448.0,920.0,468.0,890.0,475.0,850.0,475.0,1089.0,464.0,1121.0,444.0,1161.0,441.0,1186.0,451.0,1160.0,469.0,1120.0,470.0,911.0,738.0,945.0,713.0,1000.0,693.0,1024.0,703.0,1048.0,691.0,1096.0,706.0,1134.0,730.0,1096.0,751.0,1066.0,767.0,1029.0,771.0,988.0,772.0,957.0,758.0,916.0,736.0,989.0,729.0,1024.0,726.0,1054.0,726.0,1128.0,729.0,1055.0,728.0,1025.0,730.0,989.0,732.0
2669,2669.0,711.17333984375,146.2733154296875,1269.9794921875,946.8609619140625,694.0,502.0,701.0,579.0,720.0,659.0,738.0,729.0,767.0,797.0,816.0,852.0,872.0,881.0,938.0,903.0,1032.0,920.0,1129.0,898.0,1174.0,863.0,1207.0,833.0,1247.0,773.0,1268.0,700.0,1273.0,623.0,1286.0,552.0,1280.0,471.0,761.0,403.0,793.0,374.0,845.0,359.0,890.0,361.0,923.0,374.0,1087.0,370.0,1119.0,355.0,1161.0,350.0,1206.0,356.0,1240.0,382.0,1007.0,460.0,1010.0,508.0,1018.0,554.0,1021.0,596.0,966.0,636.0,988.0,639.0,1021.0,644.0,1048.0,638.0,1069.0,634.0,823.0,465.0,850.0,448.0,889.0,447.0,921.0,467.0,892.0,478.0,851.0,479.0,1088.0,463.0,1120.0,443.0,1159.0,440.0,1184.0,449.0,1159.0,467.0,1119.0,468.0,913.0,743.0,954.0,719.0,1003.0,699.0,1027.0,703.0,1050.0,697.0,1097.0,706.0,1133.0,729.0,1098.0,750.0,1069.0,766.0,1032.0,769.0,999.0,770.0,960.0,762.0,918.0,741.0,996.0,728.0,1026.0,726.0,1062.0,726.0,1127.0,728.0,1064.0,728.0,1028.0,730.0,1000.0,731.0
2668,2668.0,711.3825073242188,148.16546630859375,1268.36474609375,935.8604125976562,696.0,502.0,705.0,586.0,724.0,659.0,742.0,735.0,770.0,803.0,824.0,850.0,873.0,878.0,937.0,899.0,1031.0,917.0,1129.0,895.0,1173.0,866.0,1214.0,830.0,1247.0,776.0,1267.0,699.0,1281.0,629.0,1285.0,551.0,1281.0,477.0,762.0,402.0,792.0,372.0,838.0,357.0,889.0,360.0,922.0,373.0,1085.0,368.0,1117.0,354.0,1159.0,349.0,1203.0,355.0,1238.0,381.0,1005.0,458.0,1008.0,507.0,1017.0,553.0,1019.0,594.0,965.0,634.0,986.0,637.0,1020.0,648.0,1047.0,636.0,1067.0,632.0,824.0,463.0,851.0,453.0,889.0,446.0,921.0,465.0,892.0,477.0,852.0,478.0,1088.0,461.0,1126.0,441.0,1158.0,438.0,1188.0,454.0,1158.0,465.0,1118.0,466.0,915.0,742.0,954.0,716.0,1001.0,697.0,1025.0,701.0,1047.0,694.0,1094.0,703.0,1131.0,727.0,1095.0,756.0,1067.0,765.0,1030.0,769.0,999.0,770.0,960.0,763.0,920.0,740.0,996.0,726.0,1025.0,724.0,1054.0,723.0,1125.0,726.0,1061.0,727.0,1026.0,734.0,999.0,735.0
2667,2667.0,711.821044921875,150.11196899414062,1267.495361328125,933.173828125,698.0,502.0,707.0,585.0,725.0,658.0,744.0,726.0,772.0,801.0,825.0,848.0,875.0,883.0,938.0,905.0,1030.0,918.0,1128.0,895.0,1172.0,865.0,1212.0,829.0,1245.0,775.0,1266.0,698.0,1280.0,629.0,1284.0,551.0,1280.0,477.0,764.0,402.0,794.0,373.0,846.0,359.0,891.0,361.0,923.0,374.0,1085.0,370.0,1117.0,355.0,1159.0,350.0,1203.0,356.0,1239.0,383.0,1006.0,459.0,1009.0,507.0,1017.0,553.0,1019.0,593.0,966.0,633.0,987.0,637.0,1021.0,648.0,1047.0,636.0,1067.0,631.0,825.0,463.0,852.0,453.0,890.0,446.0,922.0,465.0,893.0,477.0,853.0,478.0,1088.0,461.0,1126.0,442.0,1158.0,439.0,1188.0,455.0,1157.0,465.0,1118.0,467.0,915.0,742.0,954.0,716.0,1001.0,696.0,1025.0,700.0,1047.0,694.0,1094.0,704.0,1131.0,734.0,1095.0,757.0,1067.0,767.0,1030.0,775.0,998.0,776.0,961.0,763.0,920.0,740.0,996.0,725.0,1025.0,723.0,1060.0,723.0,1126.0,733.0,1062.0,733.0,1026.0,735.0,999.0,736.0
2666,2666.0,710.843505859375,145.07550048828125,1266.995849609375,934.8231811523438,695.0,501.0,704.0,585.0,723.0,657.0,742.0,734.0,770.0,802.0,824.0,849.0,873.0,884.0,937.0,905.0,1031.0,917.0,1128.0,894.0,1172.0,866.0,1212.0,830.0,1245.0,776.0,1266.0,699.0,1280.0,630.0,1285.0,552.0,1281.0,478.0,762.0,401.0,793.0,372.0,845.0,357.0,889.0,366.0,922.0,373.0,1085.0,368.0,1118.0,353.0,1160.0,349.0,1204.0,356.0,1240.0,389.0,1005.0,458.0,1008.0,506.0,1016.0,552.0,1018.0,593.0,965.0,633.0,986.0,637.0,1020.0,648.0,1047.0,635.0,1067.0,631.0,824.0,463.0,850.0,453.0,890.0,452.0,920.0,465.0,891.0,477.0,852.0,478.0,1088.0,461.0,1127.0,441.0,1158.0,438.0,1189.0,455.0,1158.0,465.0,1124.0,473.0,913.0,741.0,952.0,716.0,1000.0,696.0,1025.0,700.0,1047.0,694.0,1096.0,711.0,1132.0,734.0,1096.0,757.0,1067.0,768.0,1029.0,776.0,997.0,776.0,959.0,764.0,918.0,740.0,995.0,733.0,1024.0,723.0,1060.0,724.0,1127.0,733.0,1062.0,734.0,1026.0,736.0,998.0,737.0
2665,2665.0,711.88720703125,144.02883911132812,1269.775390625,935.878662109375,697.0,501.0,707.0,585.0,726.0,657.0,746.0,733.0,774.0,802.0,828.0,849.0,877.0,884.0,940.0,905.0,1033.0,918.0,1130.0,895.0,1174.0,866.0,1214.0,831.0,1247.0,776.0,1269.0,698.0,1282.0,628.0,1287.0,550.0,1282.0,476.0,763.0,409.0,793.0,372.0,839.0,357.0,890.0,366.0,923.0,372.0,1086.0,368.0,1118.0,354.0,1161.0,349.0,1205.0,356.0,1241.0,389.0,1005.0,458.0,1008.0,506.0,1012.0,553.0,1019.0,593.0,965.0,634.0,987.0,636.0,1021.0,648.0,1047.0,635.0,1068.0,631.0,824.0,463.0,851.0,453.0,891.0,452.0,921.0,465.0,892.0,477.0,852.0,478.0,1089.0,461.0,1128.0,441.0,1159.0,438.0,1190.0,455.0,1159.0,465.0,1120.0,474.0,915.0,742.0,947.0,715.0,1001.0,696.0,1026.0,699.0,1048.0,693.0,1095.0,703.0,1133.0,734.0,1097.0,758.0,1068.0,768.0,1030.0,776.0,990.0,779.0,961.0,764.0,920.0,741.0,996.0,725.0,1025.0,723.0,1055.0,723.0,1127.0,734.0,1063.0,734.0,1027.0,736.0,1000.0,737.0
2664,2664.0,711.8636474609375,146.72479248046875,1268.81982421875,932.8984985351562,698.0,501.0,707.0,585.0,726.0,657.0,745.0,733.0,772.0,801.0,826.0,848.0,875.0,883.0,939.0,904.0,1032.0,917.0,1128.0,895.0,1173.0,866.0,1213.0,831.0,1247.0,777.0,1267.0,699.0,1281.0,630.0,1286.0,552.0,1283.0,479.0,763.0,401.0,794.0,371.0,839.0,357.0,890.0,366.0,922.0,373.0,1086.0,368.0,1118.0,354.0,1160.0,349.0,1205.0,356.0,1241.0,390.0,1006.0,458.0,1008.0,506.0,1017.0,552.0,1019.0,592.0,965.0,633.0,987.0,636.0,1021.0,647.0,1047.0,635.0,1067.0,631.0,825.0,463.0,851.0,453.0,891.0,452.0,921.0,465.0,892.0,477.0,852.0,478.0,1089.0,461.0,1127.0,441.0,1159.0,438.0,1190.0,455.0,1158.0,465.0,1119.0,466.0,914.0,742.0,947.0,715.0,1001.0,696.0,1026.0,700.0,1048.0,694.0,1096.0,711.0,1132.0,734.0,1097.0,758.0,1068.0,774.0,1030.0,777.0,990.0,779.0,960.0,764.0,919.0,740.0,996.0,733.0,1025.0,724.0,1061.0,724.0,1127.0,734.0,1062.0,735.0,1027.0,737.0,999.0,738.0
2663,2663.0,710.94970703125,146.9130859375,1269.439208984375,931.7496337890625,697.0,502.0,706.0,585.0,725.0,658.0,744.0,733.0,771.0,801.0,824.0,848.0,873.0,883.0,937.0,904.0,1029.0,917.0,1127.0,894.0,1172.0,866.0,1212.0,830.0,1246.0,776.0,1267.0,699.0,1281.0,630.0,1286.0,552.0,1283.0,478.0,763.0,401.0,793.0,371.0,839.0,356.0,890.0,366.0,923.0,373.0,1086.0,368.0,1118.0,354.0,1160.0,349.0,1205.0,356.0,1241.0,389.0,1005.0,458.0,1008.0,506.0,1017.0,552.0,1018.0,592.0,965.0,633.0,986.0,636.0,1020.0,647.0,1047.0,634.0,1067.0,630.0,825.0,463.0,851.0,453.0,891.0,452.0,921.0,465.0,892.0,477.0,852.0,478.0,1089.0,461.0,1128.0,441.0,1159.0,438.0,1190.0,455.0,1158.0,465.0,1125.0,473.0,913.0,742.0,946.0,715.0,1000.0,695.0,1025.0,699.0,1047.0,693.0,1095.0,710.0,1132.0,734.0,1096.0,759.0,1067.0,775.0,1029.0,778.0,988.0,780.0,958.0,765.0,917.0,740.0,989.0,724.0,1024.0,722.0,1054.0,723.0,1127.0,733.0,1061.0,735.0,1026.0,738.0,998.0,738.0
2662,2662.0,711.44873046875,147.79025268554688,1268.693115234375,927.101318359375,696.0,502.0,705.0,585.0,724.0,657.0,743.0,733.0,772.0,801.0,825.0,847.0,874.0,882.0,938.0,903.0,1030.0,922.0,1127.0,900.0,1172.0,866.0,1212.0,836.0,1245.0,777.0,1265.0,699.0,1280.0,630.0,1285.0,559.0,1282.0,479.0,763.0,409.0,794.0,372.0,839.0,357.0,891.0,366.0,923.0,372.0,1085.0,368.0,1117.0,353.0,1159.0,349.0,1204.0,356.0,1240.0,389.0,1006.0,457.0,1008.0,506.0,1017.0,557.0,1019.0,592.0,965.0,632.0,986.0,635.0,1020.0,647.0,1047.0,634.0,1068.0,630.0,824.0,463.0,851.0,453.0,891.0,452.0,921.0,464.0,892.0,476.0,852.0,478.0,1088.0,460.0,1127.0,440.0,1158.0,438.0,1189.0,454.0,1158.0,464.0,1124.0,473.0,911.0,741.0,946.0,715.0,1000.0,694.0,1025.0,698.0,1047.0,692.0,1096.0,709.0,1133.0,732.0,1097.0,757.0,1067.0,773.0,1029.0,777.0,989.0,779.0,958.0,764.0,916.0,739.0,989.0,730.0,1024.0,721.0,1061.0,729.0,1128.0,732.0,1062.0,734.0,1026.0,736.0,998.0,737.0
2661,2661.0,713.2020263671875,149.38421630859375,1267.548095703125,925.8482055664062,691.0,503.0,706.0,586.0,725.0,665.0,745.0,734.0,773.0,802.0,826.0,849.0,875.0,883.0,938.0,904.0,1030.0,923.0,1127.0,901.0,1174.0,867.0,1214.0,837.0,1254.0,777.0,1266.0,699.0,1280.0,630.0,1285.0,559.0,1283.0,478.0,764.0,410.0,794.0,372.0,839.0,357.0,891.0,366.0,923.0,372.0,1086.0,368.0,1125.0,354.0,1160.0,349.0,1210.0,357.0,1241.0,390.0,1006.0,457.0,1009.0,505.0,1018.0,557.0,1020.0,591.0,965.0,632.0,986.0,635.0,1020.0,646.0,1047.0,634.0,1068.0,630.0,825.0,463.0,851.0,453.0,892.0,452.0,921.0,464.0,892.0,477.0,853.0,478.0,1089.0,460.0,1127.0,440.0,1159.0,438.0,1190.0,454.0,1158.0,464.0,1125.0,473.0,912.0,741.0,945.0,713.0,999.0,693.0,1025.0,696.0,1047.0,690.0,1095.0,709.0,1131.0,733.0,1096.0,758.0,1066.0,774.0,1028.0,778.0,988.0,780.0,958.0,771.0,917.0,740.0,989.0,729.0,1024.0,720.0,1053.0,720.0,1126.0,732.0,1061.0,734.0,1025.0,737.0,990.0,739.0
2660,2660.0,712.984375,148.4532470703125,1267.472412109375,925.0386962890625,690.0,503.0,705.0,585.0,725.0,665.0,744.0,733.0,773.0,801.0,826.0,847.0,875.0,882.0,938.0,903.0,1030.0,922.0,1127.0,900.0,1175.0,866.0,1215.0,836.0,1255.0,776.0,1266.0,698.0,1280.0,629.0,1285.0,558.0,1282.0,477.0,755.0,409.0,793.0,372.0,839.0,356.0,890.0,366.0,923.0,372.0,1086.0,367.0,1118.0,353.0,1160.0,348.0,1210.0,356.0,1241.0,389.0,1006.0,456.0,1008.0,505.0,1017.0,556.0,1019.0,591.0,964.0,631.0,986.0,634.0,1020.0,646.0,1047.0,633.0,1067.0,629.0,825.0,462.0,851.0,452.0,892.0,452.0,922.0,463.0,892.0,476.0,853.0,477.0,1089.0,459.0,1127.0,439.0,1159.0,437.0,1190.0,453.0,1158.0,464.0,1125.0,472.0,913.0,740.0,945.0,712.0,998.0,691.0,1023.0,694.0,1046.0,689.0,1095.0,707.0,1131.0,732.0,1095.0,758.0,1066.0,774.0,1028.0,777.0,988.0,780.0,957.0,771.0,918.0,739.0,988.0,720.0,1023.0,718.0,1052.0,719.0,1126.0,731.0,1061.0,734.0,1025.0,737.0,989.0,738.0
2659,2659.0,711.534423828125,147.3011474609375,1269.77734375,925.056884765625,698.0,502.0,706.0,585.0,725.0,664.0,745.0,733.0,773.0,800.0,826.0,847.0,875.0,881.0,937.0,903.0,1030.0,922.0,1127.0,900.0,1174.0,866.0,1214.0,835.0,1247.0,776.0,1267.0,698.0,1281.0,629.0,1285.0,557.0,1282.0,477.0,764.0,408.0,794.0,371.0,840.0,356.0,892.0,365.0,924.0,372.0,1087.0,367.0,1118.0,353.0,1160.0,348.0,1210.0,355.0,1241.0,388.0,1007.0,456.0,1009.0,505.0,1018.0,557.0,1020.0,591.0,965.0,631.0,986.0,634.0,1021.0,646.0,1048.0,633.0,1068.0,629.0,825.0,462.0,852.0,452.0,892.0,452.0,922.0,463.0,892.0,476.0,853.0,477.0,1089.0,460.0,1127.0,440.0,1158.0,437.0,1189.0,454.0,1159.0,471.0,1125.0,472.0,912.0,740.0,944.0,712.0,998.0,691.0,1024.0,694.0,1047.0,689.0,1095.0,708.0,1131.0,733.0,1095.0,759.0,1066.0,775.0,1027.0,779.0,988.0,781.0,957.0,772.0,917.0,739.0,988.0,720.0,1023.0,718.0,1052.0,719.0,1119.0,732.0,1054.0,735.0,1025.0,738.0,989.0,740.0
2658,2658.0,711.77587890625,144.68405151367188,1268.56005859375,923.679931640625,696.0,502.0,704.0,585.0,724.0,664.0,742.0,733.0,770.0,801.0,818.0,853.0,873.0,882.0,935.0,903.0,1028.0,922.0,1126.0,900.0,1172.0,865.0,1212.0,836.0,1246.0,777.0,1266.0,708.0,1280.0,629.0,1285.0,558.0,1282.0,477.0,754.0,409.0,793.0,371.0,839.0,362.0,890.0,365.0,922.0,371.0,1085.0,367.0,1117.0,353.0,1159.0,348.0,1211.0,362.0,1240.0,388.0,1006.0,455.0,1009.0,504.0,1018.0,556.0,1020.0,597.0,964.0,630.0,986.0,641.0,1020.0,645.0,1047.0,632.0,1067.0,628.0,817.0,471.0,851.0,452.0,891.0,452.0,921.0,469.0,892.0,476.0,852.0,477.0,1088.0,459.0,1126.0,438.0,1158.0,436.0,1188.0,454.0,1158.0,471.0,1124.0,472.0,904.0,739.0,943.0,712.0,998.0,691.0,1023.0,694.0,1046.0,689.0,1094.0,708.0,1129.0,732.0,1094.0,758.0,1064.0,775.0,1026.0,778.0,986.0,781.0,955.0,772.0,916.0,738.0,987.0,727.0,1022.0,718.0,1052.0,726.0,1117.0,732.0,1053.0,734.0,1024.0,738.0,988.0,739.0
2657,2657.0,713.2576904296875,147.93399047851562,1267.1995849609375,924.06396484375,690.0,503.0,705.0,586.0,724.0,664.0,743.0,733.0,770.0,801.0,817.0,847.0,872.0,882.0,935.0,902.0,1028.0,921.0,1126.0,900.0,1172.0,866.0,1212.0,836.0,1245.0,778.0,1266.0,709.0,1280.0,631.0,1285.0,560.0,1282.0,480.0,755.0,409.0,794.0,371.0,839.0,356.0,891.0,366.0,924.0,372.0,1086.0,367.0,1125.0,353.0,1160.0,348.0,1211.0,357.0,1241.0,390.0,1006.0,456.0,1009.0,505.0,1018.0,556.0,1019.0,590.0,964.0,630.0,985.0,633.0,1020.0,645.0,1046.0,632.0,1067.0,629.0,819.0,464.0,852.0,453.0,892.0,452.0,922.0,464.0,892.0,476.0,853.0,478.0,1089.0,460.0,1127.0,439.0,1158.0,437.0,1190.0,454.0,1159.0,471.0,1125.0,472.0,904.0,739.0,942.0,711.0,997.0,690.0,1023.0,693.0,1045.0,688.0,1094.0,707.0,1130.0,732.0,1094.0,758.0,1064.0,775.0,1026.0,778.0,986.0,781.0,955.0,772.0,915.0,738.0,987.0,719.0,1021.0,717.0,1051.0,718.0,1117.0,732.0,1053.0,735.0,1024.0,738.0,987.0,739.0
2656,2656.0,711.940185546875,146.40646362304688,1268.416259765625,925.1964111328125,696.0,501.0,705.0,584.0,724.0,663.0,744.0,732.0,772.0,800.0,818.0,846.0,874.0,881.0,937.0,903.0,1030.0,923.0,1127.0,900.0,1174.0,865.0,1215.0,835.0,1255.0,775.0,1267.0,697.0,1281.0,629.0,1287.0,557.0,1284.0,477.0,763.0,408.0,793.0,371.0,839.0,356.0,891.0,365.0,923.0,371.0,1086.0,367.0,1125.0,353.0,1160.0,348.0,1211.0,355.0,1242.0,389.0,1006.0,456.0,1009.0,505.0,1018.0,556.0,1019.0,591.0,964.0,630.0,985.0,633.0,1020.0,645.0,1047.0,632.0,1068.0,628.0,825.0,461.0,851.0,452.0,892.0,451.0,922.0,463.0,892.0,475.0,853.0,477.0,1089.0,459.0,1128.0,439.0,1159.0,436.0,1191.0,453.0,1159.0,470.0,1125.0,472.0,911.0,739.0,943.0,711.0,997.0,690.0,1023.0,693.0,1046.0,688.0,1095.0,707.0,1132.0,731.0,1095.0,759.0,1065.0,776.0,1026.0,779.0,986.0,782.0,955.0,773.0,916.0,738.0,987.0,719.0,1022.0,717.0,1052.0,718.0,1127.0,731.0,1053.0,735.0,1024.0,739.0,987.0,740.0
2655,2655.0,709.9886474609375,147.29046630859375,1268.0302734375,928.0872192382812,696.0,501.0,705.0,584.0,723.0,656.0,742.0,732.0,770.0,799.0,823.0,846.0,873.0,881.0,937.0,902.0,1031.0,915.0,1129.0,892.0,1175.0,864.0,1215.0,828.0,1255.0,773.0,1274.0,695.0,1282.0,627.0,1286.0,548.0,1283.0,475.0,763.0,400.0,794.0,370.0,845.0,356.0,890.0,365.0,922.0,371.0,1086.0,367.0,1124.0,353.0,1160.0,348.0,1211.0,356.0,1241.0,389.0,1006.0,457.0,1009.0,506.0,1017.0,558.0,1019.0,592.0,964.0,631.0,985.0,634.0,1019.0,645.0,1047.0,633.0,1067.0,629.0,825.0,462.0,851.0,452.0,891.0,451.0,921.0,463.0,892.0,475.0,853.0,477.0,1089.0,460.0,1128.0,439.0,1159.0,437.0,1190.0,454.0,1159.0,464.0,1125.0,472.0,910.0,740.0,942.0,711.0,996.0,689.0,1022.0,693.0,1046.0,687.0,1094.0,698.0,1132.0,731.0,1095.0,759.0,1065.0,776.0,1026.0,780.0,986.0,783.0,954.0,774.0,914.0,739.0,986.0,718.0,1021.0,716.0,1052.0,717.0,1127.0,731.0,1060.0,737.0,1024.0,740.0,987.0,742.0
2654,2654.0,710.4005126953125,149.16412353515625,1267.512451171875,929.4937133789062,697.0,500.0,705.0,583.0,723.0,655.0,742.0,723.0,769.0,799.0,817.0,846.0,872.0,881.0,935.0,902.0,1029.0,916.0,1128.0,893.0,1174.0,864.0,1215.0,828.0,1256.0,773.0,1274.0,695.0,1282.0,626.0,1286.0,548.0,1282.0,474.0,762.0,400.0,793.0,371.0,838.0,356.0,889.0,366.0,922.0,372.0,1085.0,367.0,1123.0,353.0,1159.0,348.0,1209.0,354.0,1239.0,380.0,1005.0,457.0,1008.0,506.0,1017.0,552.0,1018.0,592.0,963.0,631.0,984.0,634.0,1019.0,645.0,1046.0,633.0,1067.0,629.0,824.0,462.0,851.0,452.0,889.0,445.0,920.0,463.0,892.0,475.0,852.0,477.0,1088.0,459.0,1126.0,440.0,1158.0,437.0,1189.0,453.0,1158.0,464.0,1124.0,466.0,909.0,739.0,941.0,711.0,994.0,690.0,1021.0,694.0,1045.0,688.0,1093.0,699.0,1131.0,732.0,1093.0,760.0,1064.0,777.0,1025.0,781.0,984.0,784.0,953.0,774.0,914.0,738.0,985.0,719.0,1020.0,717.0,1051.0,718.0,1126.0,731.0,1052.0,738.0,1022.0,741.0,986.0,743.0
2653,2653.0,711.0819702148438,142.55697631835938,1269.8349609375,933.28662109375,698.0,500.0,706.0,583.0,724.0,655.0,743.0,723.0,771.0,799.0,824.0,846.0,873.0,881.0,936.0,903.0,1029.0,916.0,1128.0,892.0,1173.0,862.0,1213.0,827.0,1247.0,773.0,1267.0,696.0,1281.0,627.0,1285.0,549.0,1281.0,475.0,763.0,407.0,794.0,370.0,846.0,356.0,891.0,364.0,923.0,371.0,1087.0,367.0,1119.0,352.0,1161.0,347.0,1206.0,354.0,1241.0,388.0,1006.0,456.0,1008.0,505.0,1017.0,557.0,1019.0,592.0,963.0,630.0,985.0,634.0,1019.0,645.0,1046.0,632.0,1067.0,628.0,825.0,461.0,852.0,452.0,891.0,451.0,921.0,463.0,892.0,475.0,853.0,477.0,1088.0,459.0,1128.0,439.0,1159.0,437.0,1189.0,454.0,1158.0,464.0,1119.0,472.0,910.0,739.0,942.0,711.0,989.0,690.0,1022.0,692.0,1046.0,687.0,1094.0,697.0,1131.0,731.0,1094.0,760.0,1064.0,777.0,1026.0,781.0,985.0,784.0,954.0,774.0,915.0,738.0,986.0,718.0,1021.0,716.0,1051.0,717.0,1118.0,731.0,1053.0,738.0,1023.0,741.0,986.0,743.0
2652,2652.0,713.4556274414062,150.9122314453125,1266.47900390625,932.4156494140625,697.0,501.0,706.0,584.0,724.0,657.0,743.0,725.0,771.0,801.0,825.0,847.0,874.0,882.0,937.0,903.0,1031.0,916.0,1129.0,893.0,1175.0,864.0,1216.0,828.0,1256.0,768.0,1275.0,696.0,1283.0,627.0,1287.0,548.0,1283.0,467.0,764.0,402.0,794.0,372.0,839.0,356.0,891.0,359.0,923.0,372.0,1085.0,361.0,1124.0,353.0,1160.0,349.0,1211.0,356.0,1240.0,381.0,1007.0,458.0,1009.0,506.0,1018.0,552.0,1020.0,592.0,964.0,631.0,986.0,634.0,1020.0,638.0,1047.0,633.0,1068.0,629.0,825.0,462.0,852.0,446.0,891.0,445.0,922.0,464.0,893.0,475.0,853.0,477.0,1089.0,460.0,1128.0,441.0,1159.0,438.0,1190.0,447.0,1159.0,464.0,1125.0,466.0,911.0,740.0,943.0,711.0,997.0,689.0,1023.0,693.0,1047.0,682.0,1095.0,698.0,1132.0,725.0,1095.0,759.0,1066.0,777.0,1027.0,781.0,987.0,784.0,955.0,767.0,916.0,739.0,987.0,719.0,1022.0,717.0,1053.0,718.0,1126.0,724.0,1060.0,737.0,1024.0,741.0,987.0,742.0
2651,2651.0,710.176025390625,147.70733642578125,1269.2032470703125,934.9613647460938,695.0,501.0,705.0,584.0,723.0,657.0,741.0,725.0,769.0,801.0,817.0,848.0,873.0,876.0,938.0,898.0,1032.0,916.0,1129.0,893.0,1175.0,863.0,1215.0,827.0,1256.0,767.0,1267.0,695.0,1280.0,626.0,1283.0,548.0,1279.0,467.0,762.0,401.0,793.0,371.0,845.0,357.0,890.0,359.0,923.0,372.0,1085.0,367.0,1117.0,352.0,1158.0,347.0,1202.0,353.0,1237.0,379.0,1006.0,457.0,1009.0,506.0,1018.0,552.0,1020.0,593.0,964.0,631.0,985.0,634.0,1020.0,638.0,1047.0,633.0,1068.0,629.0,824.0,462.0,851.0,446.0,890.0,445.0,921.0,463.0,892.0,475.0,852.0,476.0,1087.0,460.0,1126.0,440.0,1157.0,437.0,1182.0,446.0,1157.0,463.0,1117.0,465.0,910.0,740.0,943.0,710.0,998.0,683.0,1023.0,693.0,1047.0,681.0,1095.0,697.0,1131.0,724.0,1095.0,758.0,1066.0,776.0,1027.0,781.0,987.0,783.0,956.0,767.0,915.0,739.0,987.0,719.0,1022.0,717.0,1053.0,717.0,1126.0,723.0,1061.0,736.0,1024.0,740.0,987.0,742.0
2650,2650.0,712.36474609375,145.24761962890625,1268.498779296875,937.9137573242188,696.0,499.0,705.0,583.0,723.0,656.0,741.0,725.0,769.0,801.0,817.0,848.0,873.0,878.0,938.0,899.0,1031.0,918.0,1129.0,894.0,1175.0,863.0,1215.0,826.0,1249.0,766.0,1268.0,694.0,1281.0,618.0,1285.0,546.0,1281.0,465.0,763.0,399.0,793.0,370.0,845.0,356.0,891.0,359.0,923.0,371.0,1086.0,367.0,1118.0,352.0,1160.0,347.0,1203.0,352.0,1238.0,378.0,1006.0,457.0,1009.0,506.0,1018.0,552.0,1020.0,593.0,963.0,631.0,985.0,634.0,1019.0,638.0,1047.0,633.0,1067.0,629.0,825.0,461.0,851.0,445.0,890.0,444.0,922.0,463.0,892.0,474.0,852.0,475.0,1088.0,459.0,1126.0,440.0,1158.0,436.0,1183.0,445.0,1158.0,463.0,1118.0,464.0,903.0,740.0,942.0,710.0,997.0,682.0,1022.0,692.0,1046.0,680.0,1094.0,696.0,1130.0,724.0,1094.0,758.0,1066.0,770.0,1027.0,780.0,986.0,783.0,955.0,767.0,915.0,739.0,986.0,718.0,1021.0,716.0,1052.0,717.0,1118.0,723.0,1054.0,736.0,1023.0,740.0,986.0,742.0
2649,2649.0,714.0413818359375,143.87002563476562,1270.820556640625,941.4168701171875,697.0,502.0,707.0,584.0,725.0,657.0,743.0,725.0,771.0,792.0,824.0,846.0,874.0,875.0,938.0,897.0,1032.0,915.0,1129.0,892.0,1177.0,856.0,1217.0,825.0,1251.0,766.0,1272.0,694.0,1284.0,618.0,1289.0,546.0,1284.0,466.0,763.0,401.0,793.0,371.0,839.0,355.0,883.0,359.0,923.0,371.0,1079.0,366.0,1119.0,352.0,1161.0,347.0,1206.0,353.0,1241.0,380.0,1007.0,458.0,1010.0,506.0,1013.0,552.0,1020.0,593.0,963.0,631.0,985.0,634.0,1020.0,639.0,1047.0,633.0,1068.0,629.0,825.0,462.0,852.0,446.0,890.0,445.0,922.0,464.0,893.0,476.0,853.0,477.0,1089.0,460.0,1121.0,441.0,1160.0,437.0,1186.0,452.0,1159.0,464.0,1120.0,465.0,903.0,740.0,941.0,705.0,990.0,682.0,1022.0,683.0,1046.0,680.0,1095.0,696.0,1132.0,723.0,1095.0,758.0,1057.0,770.0,1026.0,781.0,985.0,784.0,948.0,768.0,915.0,739.0,986.0,717.0,1021.0,715.0,1052.0,716.0,1120.0,723.0,1053.0,737.0,1022.0,741.0,985.0,743.0
2648,2648.0,715.1768798828125,148.82913208007812,1268.695068359375,934.11376953125,698.0,502.0,708.0,585.0,727.0,657.0,746.0,724.0,773.0,799.0,827.0,846.0,875.0,875.0,939.0,897.0,1033.0,916.0,1130.0,892.0,1176.0,861.0,1215.0,824.0,1248.0,765.0,1268.0,693.0,1281.0,617.0,1285.0,546.0,1281.0,465.0,764.0,402.0,795.0,372.0,840.0,356.0,891.0,360.0,924.0,372.0,1086.0,361.0,1118.0,352.0,1160.0,347.0,1204.0,353.0,1239.0,379.0,1007.0,458.0,1011.0,506.0,1019.0,552.0,1021.0,593.0,965.0,630.0,986.0,633.0,1021.0,638.0,1048.0,632.0,1069.0,628.0,826.0,463.0,852.0,446.0,891.0,445.0,923.0,463.0,894.0,476.0,854.0,477.0,1089.0,460.0,1128.0,440.0,1159.0,437.0,1184.0,446.0,1159.0,464.0,1119.0,465.0,905.0,739.0,943.0,709.0,998.0,680.0,1023.0,691.0,1048.0,679.0,1095.0,696.0,1131.0,724.0,1095.0,759.0,1066.0,777.0,1027.0,781.0,987.0,784.0,956.0,767.0,916.0,738.0,987.0,717.0,1023.0,715.0,1053.0,715.0,1119.0,723.0,1054.0,737.0,1024.0,741.0,988.0,743.0
2647,2647.0,714.621337890625,147.33712768554688,1269.383056640625,935.6468505859375,698.0,502.0,708.0,585.0,726.0,657.0,745.0,724.0,772.0,799.0,819.0,846.0,874.0,876.0,939.0,898.0,1033.0,916.0,1131.0,893.0,1177.0,862.0,1217.0,826.0,1258.0,765.0,1270.0,693.0,1282.0,617.0,1286.0,546.0,1281.0,466.0,764.0,401.0,794.0,371.0,840.0,356.0,884.0,359.0,923.0,372.0,1087.0,360.0,1119.0,352.0,1160.0,347.0,1204.0,353.0,1239.0,380.0,1007.0,457.0,1010.0,506.0,1019.0,552.0,1021.0,592.0,964.0,630.0,986.0,633.0,1020.0,638.0,1048.0,632.0,1069.0,628.0,819.0,463.0,852.0,446.0,891.0,444.0,923.0,463.0,893.0,475.0,853.0,477.0,1089.0,459.0,1128.0,440.0,1159.0,437.0,1184.0,446.0,1159.0,464.0,1119.0,465.0,904.0,739.0,941.0,704.0,991.0,681.0,1023.0,682.0,1047.0,679.0,1096.0,695.0,1132.0,723.0,1096.0,758.0,1066.0,776.0,1027.0,781.0,987.0,784.0,955.0,767.0,915.0,738.0,986.0,716.0,1022.0,714.0,1054.0,715.0,1120.0,723.0,1055.0,737.0,1024.0,741.0,987.0,742.0
2646,2646.0,715.2542724609375,148.39895629882812,1271.0037841796875,935.4327392578125,698.0,502.0,708.0,585.0,726.0,657.0,745.0,724.0,772.0,799.0,819.0,846.0,875.0,875.0,939.0,897.0,1033.0,915.0,1131.0,892.0,1177.0,862.0,1218.0,825.0,1258.0,766.0,1271.0,694.0,1284.0,618.0,1288.0,546.0,1283.0,465.0,764.0,401.0,795.0,372.0,840.0,356.0,884.0,359.0,924.0,372.0,1088.0,361.0,1120.0,352.0,1161.0,347.0,1206.0,353.0,1242.0,379.0,1008.0,458.0,1011.0,506.0,1020.0,552.0,1022.0,593.0,964.0,629.0,986.0,633.0,1021.0,637.0,1048.0,631.0,1070.0,627.0,820.0,463.0,853.0,446.0,892.0,445.0,924.0,463.0,894.0,476.0,854.0,477.0,1089.0,460.0,1129.0,440.0,1161.0,437.0,1185.0,446.0,1160.0,464.0,1120.0,465.0,903.0,738.0,941.0,703.0,991.0,680.0,1023.0,681.0,1048.0,678.0,1096.0,694.0,1133.0,721.0,1096.0,757.0,1066.0,769.0,1026.0,780.0,986.0,783.0,948.0,767.0,915.0,737.0,986.0,715.0,1022.0,713.0,1054.0,714.0,1122.0,721.0,1054.0,736.0,1023.0,740.0,986.0,742.0
2645,2645.0,716.2813720703125,146.56332397460938,1269.75,926.2069091796875,700.0,503.0,710.0,585.0,730.0,663.0,749.0,731.0,776.0,798.0,821.0,844.0,876.0,878.0,938.0,899.0,1032.0,912.0,1130.0,889.0,1176.0,862.0,1217.0,826.0,1258.0,772.0,1277.0,695.0,1286.0,626.0,1289.0,548.0,1285.0,474.0,756.0,409.0,795.0,371.0,840.0,355.0,884.0,365.0,924.0,371.0,1088.0,366.0,1120.0,352.0,1162.0,347.0,1213.0,354.0,1243.0,388.0,1007.0,456.0,1010.0,504.0,1014.0,556.0,1020.0,590.0,964.0,627.0,986.0,631.0,1021.0,642.0,1048.0,630.0,1069.0,626.0,820.0,463.0,853.0,452.0,893.0,451.0,923.0,463.0,894.0,475.0,854.0,477.0,1091.0,458.0,1130.0,439.0,1161.0,436.0,1192.0,453.0,1161.0,463.0,1127.0,471.0,902.0,735.0,941.0,707.0,990.0,685.0,1023.0,688.0,1047.0,683.0,1097.0,693.0,1134.0,727.0,1096.0,757.0,1066.0,776.0,1027.0,779.0,986.0,782.0,946.0,773.0,914.0,735.0,986.0,713.0,1022.0,712.0,1054.0,712.0,1128.0,720.0,1054.0,736.0,1025.0,741.0,985.0,748.0
2644,2644.0,719.7109375,150.37289428710938,1271.07177734375,923.3792724609375,694.0,505.0,710.0,587.0,730.0,665.0,749.0,732.0,775.0,800.0,822.0,845.0,877.0,879.0,940.0,900.0,1034.0,918.0,1132.0,888.0,1177.0,860.0,1218.0,824.0,1258.0,770.0,1278.0,693.0,1286.0,624.0,1289.0,546.0,1284.0,473.0,757.0,410.0,795.0,372.0,840.0,356.0,884.0,365.0,924.0,372.0,1088.0,367.0,1120.0,351.0,1162.0,347.0,1206.0,353.0,1241.0,380.0,1008.0,457.0,1011.0,505.0,1015.0,557.0,1022.0,591.0,966.0,627.0,988.0,631.0,1023.0,642.0,1050.0,629.0,1070.0,625.0,820.0,464.0,852.0,454.0,886.0,450.0,924.0,462.0,894.0,475.0,854.0,477.0,1092.0,459.0,1130.0,440.0,1161.0,437.0,1192.0,452.0,1161.0,463.0,1121.0,464.0,902.0,733.0,942.0,705.0,993.0,685.0,1025.0,688.0,1049.0,683.0,1098.0,692.0,1135.0,718.0,1098.0,755.0,1068.0,773.0,1028.0,777.0,988.0,780.0,948.0,771.0,908.0,732.0,987.0,712.0,1024.0,711.0,1056.0,712.0,1129.0,718.0,1056.0,734.0,1026.0,739.0,989.0,740.0
2643,2643.0,720.3114624023438,150.598388671875,1271.183837890625,921.8741455078125,694.0,501.0,710.0,583.0,728.0,654.0,740.0,728.0,772.0,796.0,818.0,842.0,867.0,877.0,938.0,899.0,1032.0,918.0,1131.0,888.0,1176.0,859.0,1217.0,823.0,1258.0,769.0,1278.0,691.0,1286.0,623.0,1288.0,545.0,1284.0,472.0,758.0,409.0,796.0,371.0,840.0,356.0,885.0,366.0,924.0,372.0,1080.0,367.0,1120.0,352.0,1161.0,347.0,1205.0,353.0,1241.0,379.0,1008.0,457.0,1011.0,506.0,1015.0,557.0,1016.0,591.0,966.0,626.0,987.0,630.0,1016.0,642.0,1049.0,629.0,1070.0,625.0,821.0,463.0,853.0,454.0,886.0,451.0,924.0,463.0,889.0,476.0,854.0,477.0,1091.0,459.0,1122.0,440.0,1160.0,437.0,1191.0,453.0,1160.0,463.0,1121.0,464.0,899.0,729.0,940.0,704.0,991.0,684.0,1024.0,687.0,1048.0,683.0,1099.0,691.0,1137.0,717.0,1098.0,755.0,1068.0,774.0,1027.0,777.0,987.0,779.0,946.0,770.0,904.0,729.0,985.0,711.0,1023.0,710.0,1055.0,711.0,1131.0,717.0,1056.0,735.0,1026.0,739.0,985.0,746.0
2642,2642.0,721.0629272460938,149.079833984375,1273.69140625,916.746826171875,694.0,499.0,710.0,581.0,720.0,660.0,738.0,727.0,772.0,795.0,817.0,841.0,867.0,875.0,931.0,897.0,1031.0,917.0,1122.0,896.0,1178.0,860.0,1218.0,829.0,1259.0,769.0,1279.0,690.0,1287.0,621.0,1290.0,545.0,1286.0,472.0,759.0,407.0,797.0,369.0,842.0,355.0,887.0,364.0,926.0,370.0,1080.0,365.0,1121.0,351.0,1163.0,346.0,1208.0,353.0,1245.0,387.0,1010.0,455.0,1013.0,512.0,1016.0,556.0,1018.0,596.0,967.0,624.0,988.0,629.0,1018.0,640.0,1051.0,628.0,1072.0,623.0,821.0,471.0,854.0,452.0,888.0,450.0,925.0,461.0,891.0,475.0,856.0,476.0,1091.0,458.0,1123.0,438.0,1161.0,435.0,1193.0,452.0,1162.0,470.0,1122.0,471.0,898.0,726.0,940.0,701.0,992.0,681.0,1025.0,684.0,1050.0,680.0,1102.0,689.0,1140.0,715.0,1100.0,753.0,1069.0,772.0,1028.0,775.0,987.0,777.0,945.0,768.0,904.0,726.0,986.0,708.0,1025.0,707.0,1057.0,708.0,1134.0,715.0,1057.0,733.0,1024.0,744.0,985.0,744.0
2641,2641.0,720.2360229492188,147.56448364257812,1274.037109375,917.624755859375,694.0,498.0,710.0,580.0,720.0,649.0,739.0,722.0,772.0,791.0,817.0,838.0,866.0,873.0,931.0,897.0,1030.0,918.0,1121.0,895.0,1177.0,858.0,1218.0,821.0,1251.0,767.0,1280.0,688.0,1288.0,620.0,1291.0,544.0,1288.0,471.0,758.0,407.0,797.0,369.0,842.0,361.0,886.0,364.0,926.0,370.0,1080.0,365.0,1120.0,351.0,1163.0,346.0,1208.0,353.0,1244.0,387.0,1009.0,456.0,1013.0,513.0,1016.0,557.0,1017.0,597.0,966.0,624.0,987.0,628.0,1017.0,639.0,1051.0,627.0,1072.0,623.0,820.0,471.0,853.0,452.0,887.0,450.0,925.0,467.0,890.0,475.0,855.0,476.0,1091.0,457.0,1123.0,438.0,1161.0,435.0,1187.0,451.0,1161.0,469.0,1122.0,470.0,890.0,722.0,931.0,692.0,991.0,680.0,1017.0,682.0,1050.0,673.0,1108.0,687.0,1142.0,712.0,1101.0,752.0,1070.0,771.0,1027.0,774.0,986.0,775.0,944.0,767.0,901.0,723.0,985.0,707.0,1025.0,705.0,1058.0,706.0,1137.0,712.0,1058.0,733.0,1018.0,744.0,984.0,743.0
2640,2640.0,717.4407958984375,149.58404541015625,1273.71337890625,916.0360717773438,692.0,500.0,709.0,581.0,719.0,650.0,738.0,724.0,772.0,792.0,817.0,839.0,867.0,874.0,938.0,898.0,1033.0,918.0,1132.0,895.0,1179.0,856.0,1220.0,818.0,1260.0,757.0,1280.0,684.0,1288.0,609.0,1291.0,541.0,1287.0,469.0,757.0,409.0,795.0,370.0,840.0,355.0,885.0,364.0,924.0,370.0,1089.0,365.0,1121.0,351.0,1163.0,346.0,1213.0,353.0,1244.0,386.0,1009.0,456.0,1013.0,514.0,1021.0,558.0,1024.0,599.0,965.0,624.0,987.0,628.0,1023.0,639.0,1052.0,626.0,1073.0,621.0,819.0,473.0,852.0,454.0,886.0,450.0,924.0,467.0,894.0,475.0,854.0,477.0,1092.0,457.0,1130.0,438.0,1161.0,435.0,1193.0,452.0,1162.0,469.0,1122.0,470.0,887.0,716.0,930.0,689.0,991.0,672.0,1025.0,680.0,1051.0,669.0,1110.0,681.0,1150.0,708.0,1111.0,750.0,1071.0,771.0,1028.0,775.0,986.0,777.0,943.0,768.0,898.0,715.0,985.0,704.0,1025.0,702.0,1064.0,703.0,1140.0,708.0,1066.0,733.0,1024.0,744.0,984.0,745.0
2639,2639.0,716.143798828125,149.557861328125,1274.94091796875,912.6748046875,693.0,496.0,709.0,577.0,719.0,647.0,738.0,713.0,771.0,788.0,817.0,835.0,866.0,872.0,937.0,897.0,1032.0,918.0,1131.0,894.0,1180.0,854.0,1221.0,816.0,1261.0,753.0,1279.0,680.0,1286.0,605.0,1289.0,537.0,1285.0,460.0,758.0,408.0,795.0,369.0,841.0,361.0,885.0,365.0,924.0,371.0,1080.0,365.0,1120.0,351.0,1162.0,345.0,1206.0,351.0,1243.0,385.0,1009.0,456.0,1013.0,514.0,1016.0,558.0,1024.0,599.0,965.0,622.0,987.0,628.0,1023.0,639.0,1052.0,626.0,1073.0,620.0,819.0,474.0,852.0,454.0,887.0,451.0,924.0,468.0,894.0,476.0,854.0,478.0,1092.0,456.0,1129.0,438.0,1161.0,435.0,1192.0,451.0,1161.0,468.0,1122.0,469.0,885.0,712.0,929.0,687.0,990.0,671.0,1024.0,680.0,1050.0,669.0,1112.0,679.0,1152.0,705.0,1111.0,749.0,1071.0,770.0,1028.0,775.0,985.0,777.0,942.0,766.0,896.0,712.0,983.0,703.0,1025.0,701.0,1065.0,701.0,1142.0,705.0,1067.0,733.0,1024.0,744.0,983.0,745.0
2638,2638.0,717.082275390625,152.07061767578125,1276.0435791015625,903.2717895507812,697.0,495.0,713.0,575.0,723.0,644.0,742.0,718.0,774.0,785.0,819.0,833.0,869.0,869.0,933.0,895.0,1034.0,916.0,1133.0,893.0,1181.0,854.0,1222.0,821.0,1261.0,759.0,1280.0,679.0,1288.0,603.0,1299.0,536.0,1287.0,465.0,760.0,405.0,797.0,367.0,843.0,360.0,887.0,364.0,926.0,370.0,1089.0,365.0,1120.0,351.0,1163.0,347.0,1214.0,360.0,1243.0,386.0,1009.0,456.0,1013.0,513.0,1017.0,558.0,1024.0,599.0,966.0,621.0,988.0,634.0,1024.0,638.0,1052.0,625.0,1074.0,619.0,822.0,468.0,855.0,451.0,888.0,448.0,926.0,465.0,896.0,473.0,857.0,474.0,1091.0,456.0,1130.0,437.0,1161.0,434.0,1193.0,451.0,1162.0,468.0,1122.0,469.0,883.0,709.0,928.0,686.0,991.0,677.0,1024.0,679.0,1051.0,674.0,1113.0,676.0,1155.0,702.0,1113.0,747.0,1072.0,769.0,1029.0,782.0,982.0,782.0,942.0,764.0,888.0,708.0,983.0,702.0,1026.0,700.0,1066.0,699.0,1149.0,702.0,1068.0,731.0,1025.0,743.0,983.0,743.0
2637,2637.0,717.6417236328125,153.20794677734375,1278.66015625,904.7294311523438,695.0,493.0,711.0,575.0,721.0,644.0,739.0,711.0,765.0,787.0,818.0,834.0,867.0,870.0,932.0,896.0,1032.0,917.0,1124.0,894.0,1180.0,854.0,1221.0,816.0,1261.0,753.0,1281.0,680.0,1289.0,604.0,1301.0,537.0,1289.0,459.0,760.0,406.0,798.0,368.0,844.0,361.0,888.0,364.0,927.0,370.0,1082.0,366.0,1122.0,352.0,1164.0,347.0,1214.0,353.0,1245.0,386.0,1010.0,456.0,1014.0,514.0,1017.0,558.0,1018.0,599.0,966.0,621.0,988.0,627.0,1024.0,638.0,1053.0,625.0,1074.0,619.0,821.0,468.0,850.0,451.0,889.0,448.0,926.0,466.0,891.0,473.0,856.0,474.0,1092.0,455.0,1131.0,437.0,1162.0,434.0,1194.0,451.0,1163.0,468.0,1123.0,469.0,882.0,708.0,928.0,686.0,991.0,677.0,1025.0,679.0,1052.0,668.0,1115.0,676.0,1157.0,699.0,1114.0,746.0,1073.0,769.0,1029.0,773.0,986.0,775.0,941.0,764.0,887.0,707.0,976.0,700.0,1027.0,700.0,1067.0,699.0,1150.0,699.0,1069.0,731.0,1026.0,744.0,984.0,743.0
2636,2636.0,715.374267578125,149.47866821289062,1281.8006591796875,903.985595703125,696.0,493.0,712.0,574.0,721.0,643.0,740.0,710.0,772.0,784.0,819.0,832.0,868.0,869.0,934.0,896.0,1036.0,917.0,1135.0,893.0,1183.0,852.0,1225.0,813.0,1264.0,750.0,1284.0,668.0,1292.0,601.0,1304.0,534.0,1292.0,456.0,759.0,405.0,797.0,367.0,843.0,360.0,887.0,363.0,927.0,369.0,1081.0,364.0,1122.0,357.0,1164.0,346.0,1209.0,357.0,1247.0,384.0,1010.0,456.0,1014.0,514.0,1018.0,558.0,1019.0,599.0,967.0,621.0,989.0,634.0,1025.0,638.0,1054.0,625.0,1075.0,619.0,822.0,469.0,850.0,451.0,889.0,448.0,927.0,466.0,892.0,473.0,857.0,474.0,1092.0,456.0,1124.0,443.0,1162.0,434.0,1195.0,450.0,1163.0,467.0,1123.0,469.0,882.0,706.0,929.0,685.0,992.0,677.0,1026.0,679.0,1053.0,668.0,1117.0,675.0,1159.0,698.0,1116.0,746.0,1075.0,769.0,1031.0,773.0,985.0,782.0,943.0,763.0,886.0,705.0,977.0,700.0,1028.0,699.0,1069.0,699.0,1153.0,698.0,1070.0,731.0,1028.0,743.0,985.0,743.0
2635,2635.0,716.3607788085938,146.13308715820312,1281.959228515625,900.59423828125,696.0,489.0,711.0,571.0,720.0,640.0,738.0,707.0,764.0,783.0,817.0,830.0,866.0,867.0,930.0,894.0,1031.0,916.0,1124.0,892.0,1182.0,852.0,1223.0,813.0,1264.0,757.0,1284.0,677.0,1293.0,601.0,1306.0,533.0,1294.0,462.0,760.0,402.0,798.0,366.0,843.0,358.0,888.0,362.0,926.0,368.0,1081.0,364.0,1122.0,356.0,1164.0,345.0,1209.0,356.0,1246.0,384.0,1010.0,462.0,1013.0,512.0,1016.0,556.0,1017.0,597.0,965.0,619.0,988.0,631.0,1018.0,637.0,1052.0,631.0,1074.0,618.0,822.0,466.0,850.0,449.0,889.0,446.0,927.0,463.0,891.0,471.0,857.0,472.0,1093.0,461.0,1124.0,442.0,1164.0,441.0,1189.0,448.0,1164.0,467.0,1123.0,468.0,881.0,705.0,927.0,684.0,990.0,675.0,1018.0,677.0,1051.0,673.0,1115.0,675.0,1159.0,697.0,1114.0,745.0,1073.0,768.0,1029.0,781.0,975.0,782.0,934.0,762.0,886.0,704.0,975.0,698.0,1018.0,699.0,1062.0,698.0,1152.0,697.0,1061.0,737.0,1018.0,744.0,977.0,743.0
2634,2634.0,716.9501953125,147.35708618164062,1282.4788818359375,901.9149169921875,696.0,490.0,711.0,572.0,720.0,640.0,739.0,708.0,766.0,783.0,818.0,831.0,867.0,867.0,931.0,895.0,1031.0,918.0,1124.0,894.0,1183.0,852.0,1225.0,813.0,1265.0,750.0,1285.0,676.0,1295.0,600.0,1308.0,533.0,1305.0,453.0,759.0,403.0,797.0,366.0,843.0,359.0,888.0,362.0,926.0,369.0,1082.0,364.0,1122.0,356.0,1165.0,345.0,1210.0,357.0,1247.0,384.0,1010.0,463.0,1014.0,513.0,1017.0,557.0,1018.0,598.0,966.0,620.0,989.0,633.0,1019.0,637.0,1053.0,631.0,1074.0,618.0,821.0,468.0,849.0,450.0,889.0,447.0,927.0,465.0,891.0,472.0,851.0,474.0,1093.0,461.0,1124.0,443.0,1164.0,442.0,1189.0,449.0,1164.0,468.0,1123.0,469.0,880.0,705.0,927.0,684.0,991.0,676.0,1019.0,677.0,1052.0,673.0,1116.0,674.0,1160.0,696.0,1115.0,745.0,1074.0,768.0,1030.0,781.0,976.0,782.0,935.0,762.0,885.0,704.0,976.0,699.0,1019.0,699.0,1062.0,698.0,1153.0,696.0,1062.0,737.0,1020.0,744.0,977.0,743.0
2633,2633.0,714.59228515625,149.37997436523438,1283.178466796875,901.430908203125,696.0,490.0,712.0,572.0,721.0,641.0,739.0,708.0,766.0,784.0,818.0,833.0,867.0,869.0,932.0,897.0,1033.0,919.0,1125.0,895.0,1183.0,853.0,1225.0,813.0,1265.0,750.0,1285.0,676.0,1294.0,600.0,1306.0,533.0,1295.0,455.0,760.0,404.0,797.0,366.0,843.0,359.0,888.0,363.0,926.0,369.0,1081.0,364.0,1121.0,356.0,1164.0,346.0,1209.0,357.0,1246.0,384.0,1010.0,455.0,1014.0,514.0,1017.0,558.0,1018.0,599.0,966.0,620.0,989.0,633.0,1019.0,638.0,1053.0,624.0,1074.0,619.0,822.0,468.0,850.0,450.0,889.0,447.0,927.0,465.0,891.0,472.0,857.0,473.0,1093.0,456.0,1124.0,443.0,1162.0,434.0,1189.0,448.0,1163.0,467.0,1123.0,469.0,880.0,706.0,927.0,685.0,991.0,676.0,1018.0,677.0,1052.0,673.0,1117.0,674.0,1160.0,696.0,1116.0,746.0,1074.0,769.0,1031.0,782.0,977.0,783.0,935.0,763.0,885.0,705.0,975.0,699.0,1019.0,700.0,1068.0,698.0,1154.0,696.0,1070.0,731.0,1026.0,744.0,983.0,743.0
2632,2632.0,715.8021240234375,147.9931640625,1282.519287109375,899.2271728515625,696.0,491.0,711.0,573.0,720.0,641.0,739.0,715.0,766.0,784.0,818.0,832.0,867.0,868.0,932.0,895.0,1033.0,918.0,1125.0,893.0,1183.0,851.0,1224.0,812.0,1265.0,749.0,1285.0,675.0,1293.0,599.0,1306.0,532.0,1293.0,462.0,760.0,404.0,797.0,366.0,843.0,359.0,888.0,363.0,926.0,369.0,1082.0,364.0,1122.0,356.0,1164.0,346.0,1209.0,357.0,1246.0,383.0,1011.0,463.0,1014.0,513.0,1017.0,557.0,1018.0,597.0,966.0,619.0,989.0,632.0,1019.0,637.0,1053.0,631.0,1075.0,618.0,822.0,468.0,850.0,450.0,889.0,447.0,927.0,464.0,891.0,472.0,857.0,473.0,1093.0,461.0,1124.0,443.0,1164.0,441.0,1189.0,448.0,1164.0,467.0,1123.0,468.0,880.0,705.0,928.0,684.0,992.0,676.0,1019.0,677.0,1052.0,673.0,1117.0,674.0,1160.0,696.0,1116.0,745.0,1074.0,768.0,1030.0,781.0,977.0,782.0,935.0,762.0,885.0,704.0,976.0,698.0,1028.0,699.0,1068.0,697.0,1154.0,696.0,1069.0,738.0,1026.0,743.0,983.0,742.0
2631,2631.0,715.4383544921875,148.65093994140625,1282.446044921875,900.2608032226562,695.0,490.0,711.0,572.0,720.0,640.0,739.0,708.0,765.0,783.0,817.0,832.0,866.0,868.0,931.0,896.0,1032.0,918.0,1124.0,893.0,1182.0,852.0,1224.0,812.0,1264.0,750.0,1285.0,675.0,1293.0,599.0,1306.0,531.0,1294.0,453.0,759.0,404.0,797.0,366.0,843.0,359.0,887.0,362.0,926.0,368.0,1081.0,363.0,1121.0,356.0,1163.0,345.0,1208.0,356.0,1245.0,383.0,1009.0,455.0,1013.0,513.0,1016.0,558.0,1017.0,598.0,965.0,620.0,988.0,633.0,1018.0,637.0,1052.0,631.0,1074.0,619.0,822.0,468.0,849.0,450.0,888.0,447.0,926.0,465.0,891.0,472.0,856.0,473.0,1092.0,461.0,1123.0,443.0,1163.0,442.0,1188.0,448.0,1163.0,467.0,1122.0,468.0,880.0,705.0,927.0,684.0,991.0,676.0,1018.0,677.0,1051.0,674.0,1116.0,674.0,1160.0,696.0,1115.0,745.0,1073.0,769.0,1030.0,782.0,976.0,783.0,934.0,762.0,885.0,704.0,975.0,699.0,1019.0,699.0,1067.0,698.0,1154.0,696.0,1069.0,738.0,1019.0,744.0,977.0,743.0
2630,2630.0,715.3365478515625,150.3682861328125,1283.238037109375,901.2081298828125,696.0,490.0,711.0,572.0,720.0,640.0,739.0,708.0,765.0,784.0,817.0,832.0,867.0,869.0,932.0,897.0,1033.0,919.0,1126.0,894.0,1184.0,852.0,1226.0,813.0,1266.0,749.0,1286.0,667.0,1295.0,599.0,1307.0,531.0,1294.0,454.0,760.0,404.0,797.0,366.0,843.0,360.0,888.0,363.0,926.0,369.0,1080.0,364.0,1121.0,357.0,1163.0,346.0,1209.0,357.0,1246.0,383.0,1009.0,456.0,1014.0,514.0,1016.0,558.0,1018.0,599.0,965.0,620.0,988.0,633.0,1019.0,638.0,1053.0,624.0,1074.0,619.0,822.0,468.0,849.0,450.0,889.0,448.0,927.0,465.0,891.0,472.0,856.0,473.0,1092.0,456.0,1123.0,443.0,1162.0,434.0,1189.0,448.0,1163.0,467.0,1123.0,469.0,880.0,706.0,927.0,685.0,991.0,676.0,1018.0,677.0,1052.0,674.0,1117.0,674.0,1161.0,696.0,1116.0,746.0,1075.0,769.0,1031.0,782.0,977.0,783.0,935.0,763.0,885.0,705.0,975.0,699.0,1019.0,700.0,1068.0,698.0,1154.0,689.0,1070.0,738.0,1027.0,744.0,978.0,744.0
2629,2629.0,714.3032836914062,149.76138305664062,1282.13720703125,899.99609375,695.0,491.0,711.0,573.0,720.0,642.0,739.0,709.0,765.0,785.0,817.0,833.0,866.0,870.0,931.0,897.0,1032.0,918.0,1133.0,894.0,1182.0,852.0,1224.0,813.0,1264.0,750.0,1284.0,675.0,1292.0,599.0,1305.0,531.0,1292.0,454.0,759.0,404.0,796.0,366.0,842.0,360.0,887.0,363.0,925.0,369.0,1080.0,364.0,1120.0,356.0,1162.0,345.0,1207.0,356.0,1245.0,382.0,1009.0,455.0,1012.0,514.0,1015.0,558.0,1017.0,598.0,965.0,620.0,988.0,633.0,1018.0,638.0,1052.0,624.0,1073.0,618.0,821.0,469.0,849.0,451.0,888.0,448.0,926.0,465.0,891.0,473.0,856.0,474.0,1092.0,455.0,1123.0,442.0,1161.0,433.0,1187.0,447.0,1162.0,466.0,1122.0,468.0,879.0,705.0,926.0,685.0,990.0,676.0,1017.0,677.0,1050.0,674.0,1116.0,674.0,1160.0,696.0,1115.0,745.0,1073.0,769.0,1030.0,782.0,976.0,783.0,934.0,763.0,884.0,705.0,974.0,699.0,1018.0,700.0,1067.0,698.0,1153.0,696.0,1069.0,738.0,1025.0,744.0,976.0,744.0
2628,2628.0,713.1595458984375,147.28094482421875,1282.502685546875,901.5213012695312,695.0,491.0,711.0,573.0,720.0,642.0,738.0,709.0,771.0,784.0,817.0,833.0,867.0,869.0,932.0,896.0,1032.0,918.0,1133.0,893.0,1183.0,852.0,1225.0,812.0,1265.0,750.0,1285.0,675.0,1294.0,600.0,1308.0,532.0,1305.0,453.0,757.0,404.0,794.0,366.0,840.0,359.0,885.0,362.0,924.0,368.0,1080.0,363.0,1121.0,355.0,1163.0,344.0,1209.0,356.0,1246.0,382.0,1009.0,463.0,1013.0,513.0,1016.0,557.0,1017.0,598.0,964.0,620.0,987.0,633.0,1018.0,637.0,1052.0,624.0,1073.0,618.0,819.0,468.0,847.0,450.0,886.0,447.0,925.0,465.0,889.0,473.0,849.0,475.0,1092.0,454.0,1123.0,442.0,1162.0,433.0,1195.0,448.0,1163.0,466.0,1122.0,468.0,879.0,705.0,926.0,685.0,989.0,676.0,1017.0,677.0,1051.0,673.0,1116.0,674.0,1159.0,696.0,1115.0,745.0,1073.0,769.0,1030.0,782.0,976.0,783.0,933.0,763.0,884.0,705.0,974.0,699.0,1018.0,699.0,1067.0,698.0,1153.0,696.0,1068.0,738.0,1025.0,744.0,982.0,743.0
2627,2627.0,713.950439453125,149.47708129882812,1282.2275390625,900.5018310546875,696.0,492.0,711.0,574.0,720.0,642.0,739.0,709.0,771.0,784.0,817.0,833.0,866.0,869.0,931.0,897.0,1032.0,918.0,1124.0,894.0,1182.0,852.0,1224.0,813.0,1264.0,750.0,1284.0,676.0,1292.0,600.0,1305.0,533.0,1293.0,455.0,759.0,404.0,796.0,367.0,842.0,359.0,886.0,363.0,925.0,369.0,1079.0,363.0,1120.0,356.0,1162.0,345.0,1207.0,356.0,1245.0,383.0,1009.0,455.0,1013.0,513.0,1016.0,557.0,1017.0,598.0,965.0,620.0,988.0,633.0,1018.0,637.0,1052.0,624.0,1074.0,618.0,821.0,469.0,848.0,451.0,888.0,448.0,926.0,465.0,890.0,473.0,855.0,474.0,1091.0,455.0,1122.0,442.0,1161.0,433.0,1187.0,448.0,1162.0,466.0,1122.0,468.0,879.0,705.0,926.0,684.0,990.0,676.0,1018.0,677.0,1051.0,673.0,1116.0,674.0,1160.0,696.0,1115.0,745.0,1074.0,769.0,1030.0,782.0,983.0,782.0,934.0,763.0,884.0,704.0,975.0,699.0,1019.0,699.0,1068.0,698.0,1153.0,696.0,1069.0,738.0,1026.0,744.0,983.0,743.0
2626,2626.0,714.4761962890625,150.55792236328125,1282.09375,902.1785278320312,695.0,492.0,711.0,573.0,720.0,642.0,739.0,709.0,772.0,784.0,818.0,832.0,868.0,869.0,933.0,897.0,1034.0,919.0,1134.0,894.0,1184.0,852.0,1226.0,813.0,1266.0,749.0,1286.0,667.0,1303.0,601.0,1308.0,532.0,1304.0,454.0,759.0,405.0,796.0,367.0,842.0,360.0,887.0,363.0,925.0,369.0,1080.0,364.0,1120.0,351.0,1163.0,346.0,1209.0,357.0,1246.0,384.0,1009.0,455.0,1013.0,514.0,1016.0,558.0,1017.0,599.0,965.0,621.0,988.0,626.0,1019.0,638.0,1053.0,624.0,1074.0,618.0,821.0,469.0,849.0,451.0,888.0,448.0,926.0,465.0,891.0,473.0,856.0,474.0,1092.0,455.0,1124.0,443.0,1162.0,433.0,1195.0,449.0,1163.0,467.0,1123.0,468.0,880.0,706.0,927.0,685.0,991.0,676.0,1019.0,677.0,1052.0,668.0,1117.0,674.0,1161.0,689.0,1116.0,746.0,1075.0,770.0,1031.0,782.0,984.0,782.0,941.0,763.0,885.0,705.0,976.0,700.0,1027.0,699.0,1068.0,698.0,1154.0,689.0,1070.0,732.0,1027.0,744.0,984.0,743.0
2625,2625.0,712.6168823242188,147.62481689453125,1282.1943359375,900.6581420898438,694.0,492.0,711.0,573.0,720.0,641.0,739.0,708.0,772.0,782.0,818.0,830.0,867.0,867.0,932.0,894.0,1032.0,915.0,1132.0,891.0,1182.0,851.0,1224.0,812.0,1264.0,749.0,1283.0,675.0,1291.0,600.0,1304.0,532.0,1292.0,454.0,757.0,404.0,795.0,366.0,840.0,359.0,885.0,362.0,924.0,368.0,1080.0,363.0,1120.0,355.0,1162.0,344.0,1207.0,355.0,1245.0,382.0,1008.0,454.0,1012.0,513.0,1015.0,557.0,1017.0,598.0,964.0,619.0,987.0,632.0,1018.0,637.0,1051.0,623.0,1073.0,618.0,819.0,469.0,847.0,451.0,886.0,447.0,924.0,465.0,889.0,473.0,854.0,474.0,1091.0,460.0,1122.0,442.0,1160.0,433.0,1187.0,447.0,1161.0,466.0,1121.0,467.0,879.0,704.0,926.0,684.0,989.0,675.0,1017.0,676.0,1050.0,672.0,1115.0,673.0,1159.0,695.0,1115.0,745.0,1073.0,768.0,1030.0,781.0,982.0,781.0,939.0,762.0,884.0,704.0,974.0,698.0,1026.0,698.0,1067.0,697.0,1153.0,695.0,1068.0,737.0,1025.0,743.0,982.0,742.0
2624,2624.0,712.580810546875,145.91009521484375,1282.695556640625,903.3493041992188,694.0,492.0,711.0,574.0,720.0,642.0,739.0,709.0,772.0,784.0,818.0,832.0,867.0,869.0,933.0,896.0,1034.0,917.0,1134.0,893.0,1184.0,852.0,1226.0,812.0,1266.0,749.0,1286.0,666.0,1303.0,599.0,1309.0,531.0,1306.0,451.0,757.0,404.0,794.0,366.0,840.0,359.0,885.0,362.0,923.0,368.0,1080.0,362.0,1121.0,354.0,1164.0,343.0,1210.0,355.0,1248.0,382.0,1008.0,463.0,1012.0,513.0,1015.0,558.0,1017.0,598.0,964.0,620.0,987.0,633.0,1018.0,637.0,1052.0,624.0,1073.0,618.0,819.0,469.0,847.0,451.0,886.0,448.0,925.0,465.0,889.0,473.0,854.0,474.0,1092.0,454.0,1123.0,442.0,1162.0,433.0,1196.0,448.0,1163.0,466.0,1123.0,467.0,879.0,705.0,926.0,684.0,990.0,676.0,1018.0,676.0,1051.0,667.0,1116.0,673.0,1160.0,695.0,1115.0,745.0,1074.0,769.0,1029.0,773.0,983.0,781.0,940.0,763.0,884.0,705.0,975.0,699.0,1026.0,698.0,1068.0,697.0,1153.0,688.0,1069.0,730.0,1026.0,743.0,983.0,742.0
2623,2623.0,714.0234985351562,151.29010009765625,1281.671875,901.8395385742188,695.0,492.0,711.0,573.0,721.0,642.0,740.0,709.0,772.0,784.0,819.0,833.0,868.0,869.0,934.0,897.0,1035.0,918.0,1134.0,894.0,1183.0,853.0,1225.0,813.0,1265.0,750.0,1284.0,668.0,1293.0,600.0,1305.0,533.0,1302.0,455.0,759.0,405.0,796.0,367.0,842.0,360.0,886.0,363.0,925.0,370.0,1080.0,364.0,1120.0,351.0,1163.0,346.0,1208.0,358.0,1246.0,384.0,1008.0,455.0,1012.0,513.0,1015.0,558.0,1017.0,598.0,965.0,621.0,987.0,626.0,1018.0,637.0,1052.0,624.0,1074.0,618.0,820.0,469.0,848.0,451.0,887.0,448.0,925.0,465.0,890.0,473.0,855.0,474.0,1091.0,454.0,1123.0,442.0,1161.0,433.0,1194.0,449.0,1162.0,467.0,1122.0,468.0,880.0,706.0,927.0,685.0,990.0,676.0,1018.0,677.0,1051.0,667.0,1117.0,673.0,1160.0,689.0,1116.0,745.0,1075.0,769.0,1030.0,774.0,984.0,781.0,941.0,763.0,885.0,705.0,976.0,699.0,1027.0,699.0,1069.0,698.0,1153.0,688.0,1070.0,731.0,1027.0,744.0,985.0,743.0
2622,2622.0,715.183349609375,149.4815673828125,1280.818115234375,898.3753662109375,695.0,491.0,711.0,572.0,720.0,641.0,739.0,715.0,765.0,783.0,817.0,831.0,866.0,868.0,931.0,895.0,1031.0,916.0,1124.0,892.0,1182.0,851.0,1223.0,812.0,1263.0,756.0,1282.0,675.0,1290.0,600.0,1303.0,532.0,1290.0,462.0,759.0,404.0,796.0,366.0,842.0,359.0,887.0,362.0,925.0,369.0,1079.0,363.0,1119.0,355.0,1161.0,344.0,1206.0,356.0,1244.0,383.0,1008.0,454.0,1012.0,512.0,1015.0,556.0,1016.0,597.0,964.0,619.0,987.0,632.0,1017.0,636.0,1051.0,630.0,1073.0,618.0,821.0,467.0,849.0,450.0,888.0,447.0,926.0,464.0,890.0,471.0,856.0,472.0,1091.0,454.0,1122.0,442.0,1160.0,433.0,1186.0,447.0,1161.0,466.0,1121.0,467.0,879.0,704.0,925.0,683.0,989.0,674.0,1017.0,676.0,1050.0,672.0,1115.0,673.0,1159.0,695.0,1115.0,744.0,1073.0,768.0,1029.0,781.0,975.0,782.0,933.0,761.0,884.0,703.0,974.0,697.0,1018.0,698.0,1067.0,697.0,1153.0,695.0,1068.0,737.0,1019.0,744.0,976.0,743.0
2621,2621.0,713.979248046875,151.2633056640625,1281.339599609375,899.29296875,695.0,491.0,711.0,572.0,720.0,640.0,739.0,708.0,765.0,783.0,817.0,831.0,866.0,867.0,932.0,894.0,1033.0,916.0,1133.0,892.0,1182.0,851.0,1223.0,812.0,1263.0,749.0,1282.0,675.0,1289.0,600.0,1301.0,533.0,1290.0,456.0,759.0,404.0,796.0,366.0,842.0,359.0,886.0,362.0,925.0,368.0,1080.0,363.0,1120.0,350.0,1163.0,345.0,1207.0,350.0,1245.0,384.0,1009.0,454.0,1013.0,513.0,1016.0,557.0,1017.0,597.0,965.0,619.0,987.0,625.0,1018.0,636.0,1052.0,623.0,1074.0,617.0,821.0,467.0,849.0,449.0,888.0,446.0,926.0,464.0,891.0,471.0,856.0,472.0,1091.0,454.0,1123.0,442.0,1161.0,433.0,1193.0,449.0,1162.0,467.0,1121.0,467.0,879.0,704.0,926.0,683.0,990.0,675.0,1018.0,676.0,1051.0,666.0,1116.0,672.0,1160.0,688.0,1116.0,744.0,1074.0,768.0,1030.0,772.0,983.0,780.0,940.0,761.0,884.0,704.0,975.0,698.0,1026.0,698.0,1068.0,697.0,1153.0,688.0,1070.0,729.0,1026.0,742.0,984.0,741.0
2620,2620.0,715.2059326171875,147.29296875,1281.5615234375,899.79638671875,695.0,490.0,711.0,571.0,720.0,640.0,738.0,707.0,764.0,783.0,816.0,831.0,865.0,868.0,930.0,895.0,1030.0,916.0,1123.0,893.0,1181.0,852.0,1222.0,813.0,1263.0,757.0,1283.0,676.0,1290.0,600.0,1303.0,532.0,1291.0,461.0,758.0,403.0,796.0,366.0,841.0,358.0,886.0,361.0,925.0,367.0,1080.0,362.0,1120.0,354.0,1163.0,344.0,1208.0,355.0,1245.0,382.0,1009.0,462.0,1013.0,512.0,1015.0,556.0,1017.0,597.0,964.0,619.0,987.0,632.0,1018.0,636.0,1051.0,630.0,1073.0,617.0,820.0,467.0,848.0,450.0,887.0,447.0,925.0,464.0,890.0,471.0,850.0,474.0,1091.0,460.0,1123.0,441.0,1161.0,432.0,1187.0,447.0,1162.0,466.0,1122.0,467.0,878.0,704.0,925.0,684.0,990.0,674.0,1017.0,676.0,1051.0,672.0,1116.0,673.0,1159.0,696.0,1114.0,745.0,1073.0,768.0,1029.0,781.0,975.0,782.0,933.0,762.0,884.0,703.0,974.0,698.0,1018.0,698.0,1067.0,696.0,1152.0,695.0,1068.0,737.0,1018.0,744.0,976.0,743.0
2619,2619.0,714.3807373046875,148.3233642578125,1281.7095947265625,899.67236328125,695.0,492.0,711.0,573.0,720.0,642.0,739.0,716.0,765.0,784.0,816.0,832.0,865.0,868.0,931.0,894.0,1031.0,916.0,1123.0,892.0,1181.0,852.0,1222.0,814.0,1263.0,758.0,1283.0,677.0,1292.0,601.0,1305.0,534.0,1292.0,463.0,758.0,404.0,796.0,366.0,842.0,359.0,887.0,362.0,925.0,368.0,1080.0,363.0,1121.0,355.0,1163.0,344.0,1208.0,356.0,1245.0,383.0,1009.0,454.0,1013.0,513.0,1016.0,556.0,1017.0,597.0,964.0,619.0,988.0,632.0,1018.0,637.0,1052.0,623.0,1074.0,617.0,821.0,468.0,848.0,450.0,888.0,447.0,926.0,465.0,890.0,472.0,856.0,473.0,1091.0,461.0,1123.0,442.0,1161.0,433.0,1187.0,448.0,1162.0,466.0,1122.0,468.0,879.0,704.0,926.0,683.0,990.0,675.0,1018.0,676.0,1051.0,672.0,1116.0,673.0,1160.0,694.0,1115.0,744.0,1073.0,768.0,1030.0,780.0,976.0,781.0,934.0,761.0,884.0,703.0,974.0,698.0,1018.0,698.0,1068.0,697.0,1154.0,694.0,1069.0,737.0,1026.0,742.0,983.0,741.0
2618,2618.0,714.7437744140625,151.71054077148438,1281.2822265625,898.8839111328125,696.0,491.0,711.0,571.0,721.0,640.0,739.0,708.0,765.0,783.0,817.0,831.0,866.0,867.0,932.0,894.0,1032.0,915.0,1133.0,891.0,1182.0,851.0,1224.0,813.0,1263.0,750.0,1283.0,676.0,1290.0,600.0,1302.0,533.0,1292.0,456.0,760.0,404.0,797.0,366.0,843.0,359.0,887.0,362.0,926.0,369.0,1080.0,364.0,1120.0,350.0,1163.0,345.0,1216.0,358.0,1246.0,384.0,1009.0,454.0,1013.0,512.0,1016.0,556.0,1018.0,597.0,965.0,619.0,987.0,625.0,1018.0,636.0,1052.0,623.0,1074.0,617.0,821.0,467.0,849.0,449.0,888.0,447.0,926.0,464.0,891.0,471.0,856.0,472.0,1092.0,454.0,1124.0,442.0,1162.0,433.0,1194.0,450.0,1163.0,467.0,1122.0,467.0,880.0,704.0,927.0,684.0,990.0,675.0,1018.0,676.0,1052.0,667.0,1117.0,673.0,1160.0,695.0,1116.0,744.0,1074.0,768.0,1030.0,772.0,983.0,780.0,940.0,761.0,885.0,704.0,975.0,698.0,1027.0,698.0,1068.0,697.0,1154.0,695.0,1069.0,729.0,1027.0,742.0,984.0,741.0
2617,2617.0,715.3290405273438,151.46563720703125,1281.438232421875,898.4624633789062,697.0,491.0,712.0,572.0,721.0,640.0,739.0,708.0,765.0,783.0,817.0,831.0,867.0,868.0,931.0,895.0,1031.0,917.0,1123.0,893.0,1181.0,852.0,1223.0,813.0,1263.0,756.0,1283.0,676.0,1290.0,600.0,1302.0,533.0,1291.0,456.0,761.0,403.0,798.0,365.0,844.0,358.0,888.0,362.0,926.0,368.0,1081.0,364.0,1120.0,350.0,1163.0,346.0,1208.0,357.0,1245.0,384.0,1009.0,454.0,1013.0,513.0,1016.0,556.0,1017.0,597.0,965.0,619.0,988.0,632.0,1018.0,636.0,1052.0,623.0,1074.0,617.0,823.0,467.0,850.0,449.0,889.0,447.0,927.0,464.0,892.0,471.0,857.0,472.0,1091.0,454.0,1123.0,442.0,1161.0,433.0,1187.0,449.0,1162.0,467.0,1121.0,468.0,880.0,704.0,926.0,684.0,990.0,675.0,1018.0,676.0,1051.0,672.0,1116.0,673.0,1159.0,695.0,1115.0,744.0,1073.0,768.0,1030.0,781.0,976.0,781.0,934.0,761.0,885.0,704.0,975.0,698.0,1019.0,698.0,1068.0,697.0,1153.0,695.0,1068.0,737.0,1026.0,742.0,983.0,741.0
2616,2616.0,715.6317138671875,151.67843627929688,1280.2001953125,897.3653564453125,696.0,491.0,712.0,571.0,721.0,640.0,739.0,707.0,766.0,782.0,818.0,830.0,866.0,867.0,930.0,894.0,1031.0,915.0,1123.0,891.0,1181.0,851.0,1222.0,819.0,1262.0,757.0,1281.0,677.0,1288.0,600.0,1300.0,534.0,1289.0,464.0,760.0,404.0,798.0,366.0,844.0,359.0,888.0,362.0,926.0,369.0,1080.0,364.0,1120.0,350.0,1162.0,346.0,1207.0,357.0,1244.0,384.0,1009.0,455.0,1013.0,513.0,1016.0,556.0,1017.0,597.0,965.0,619.0,987.0,631.0,1018.0,636.0,1052.0,623.0,1074.0,617.0,822.0,467.0,850.0,450.0,889.0,447.0,927.0,464.0,891.0,472.0,857.0,473.0,1092.0,455.0,1123.0,443.0,1161.0,434.0,1193.0,450.0,1162.0,467.0,1122.0,468.0,880.0,704.0,926.0,683.0,989.0,674.0,1017.0,676.0,1050.0,672.0,1115.0,673.0,1159.0,696.0,1115.0,745.0,1073.0,768.0,1029.0,781.0,975.0,782.0,933.0,762.0,885.0,703.0,974.0,697.0,1018.0,698.0,1067.0,696.0,1152.0,696.0,1068.0,738.0,1025.0,743.0,976.0,743.0
2615,2615.0,715.876953125,148.65359497070312,1282.056640625,895.6982421875,697.0,489.0,712.0,570.0,721.0,639.0,739.0,712.0,766.0,781.0,817.0,829.0,866.0,866.0,930.0,893.0,1030.0,915.0,1123.0,891.0,1182.0,850.0,1223.0,817.0,1264.0,755.0,1283.0,674.0,1291.0,598.0,1303.0,531.0,1292.0,460.0,760.0,402.0,798.0,365.0,843.0,358.0,888.0,361.0,927.0,367.0,1082.0,362.0,1122.0,354.0,1164.0,344.0,1209.0,355.0,1246.0,381.0,1010.0,461.0,1013.0,511.0,1016.0,555.0,1017.0,596.0,965.0,617.0,988.0,630.0,1018.0,635.0,1052.0,629.0,1074.0,617.0,822.0,466.0,850.0,449.0,889.0,446.0,927.0,463.0,892.0,471.0,857.0,472.0,1092.0,460.0,1124.0,441.0,1163.0,440.0,1194.0,448.0,1163.0,466.0,1123.0,467.0,880.0,703.0,926.0,683.0,990.0,673.0,1018.0,676.0,1050.0,672.0,1116.0,673.0,1159.0,695.0,1115.0,745.0,1073.0,769.0,1029.0,781.0,975.0,781.0,933.0,761.0,885.0,702.0,974.0,696.0,1018.0,697.0,1067.0,696.0,1153.0,695.0,1068.0,738.0,1019.0,744.0,976.0,743.0
